-0.00774056
-0.00758429
-0.00679106
-0.00827065
-0.00231651
-0.00807111
-0.00774413
-0.00343753
-0.00666528
-0.00753203
-0.00608879
-0.00828356
-0.00721998
-0.00722846
-0.00783382
-0.00754147
-0.00729596
-0.00670937
-0.00532878
-0.00673724
-0.00245464
-0.00646005
-0.00711332
-0.00696774
-0.0032584
-0.00696145
-0.00379566
-0.00678347
-0.00643451
-0.00745614
-0.00756898
-0.00766704
-0.00697223
-0.00671216
-0.00817639
-0.00576781
-0.00491811
-0.00814214
-0.00753456
-0.00692047
-0.0080159
-0.00802769
-0.00787336
-0.00811434
-0.00428818
-0.00526614
-0.00790249
-0.00757729
-0.00800493
-0.00749097
-0.00824028
-0.00816568
-0.00807622
-0.00209694
-0.00796911
-0.00598752
-0.00783046
-0.00809978
-0.00802154
-0.0029916
-0.00800085
-0.00389744
-0.00804311
-0.00696534
-0.0078958
-0.0065283
-0.00808726
-0.00817224
-0.00806939
-0.00754597
-0.00653045
-0.00768779
-0.00787151
-0.00741528
-0.00403212
-0.0059752
-0.00796855
-0.00742519
-0.00801775
-0.00797668
-0.00529795
-0.00827697
-0.00674261
-0.00734748
-0.00754923
-0.00774696
-0.00793548
-0.00598719
-0.00731048
-0.00507229
-0.00276374
-0.00681094
-0.00800831
-0.00642076
-0.00772802
-0.00806505
-0.00148423
-0.00814191
-0.00302391
-0.00440317
-0.00801101
-0.00797244
-0.00609422
-0.00548631
-0.00811431
-0.00669938
-0.00824718
-0.00700995
-0.00454749
-0.00685755
-0.00321455
-0.00815603
-0.00326978
-0.00727792
-0.00591604
-0.0060353
-0.00601282
-0.00579845
-0.0028833
-0.00806862
-0.00721208
-0.00677243
-0.00786968
-0.00776636
-0.00812266
-0.00235063
-0.00766388
-0.00712043
-0.00804997
-0.00797515
-0.00833959
-0.0078135
-0.00772783
-0.00635808
-0.00671876
-0.007918
-0.00563118
-0.00720212
-0.00662863
-0.00774713
-0.00805117
-0.00579982
-0.00490573
-0.00692094
-0.00480751
-0.00254055
-0.00630517
-0.00680376
-0.00763077
-0.00786514
-0.00677024
-0.00807086
-0.00644591
-0.00813708
-0.00239067
-0.0083691
-0.00682275
-0.00713975
-0.00807231
-0.00634247
-0.00708124
-0.0084277
-0.00530863
-0.00804608
-0.0082023
-0.0052062
-0.00409278
-0.00805861
-0.00793617
-0.00634974
-0.00788751
-0.00557747
-0.00592378
-0.00515903
-0.00731058
-0.00776474
-0.00337382
-0.00716162
-0.00539268
-0.0074786
-0.00825815
-0.00797474
-0.00573711
-0.00486633
-0.000825044
-0.00805938
-0.00608308
-0.00724759
-0.00300493
-0.00668797
-0.00802166
-0.000283362
-0.00838449
-0.00665066
-0.00788094
-0.00442793
-0.00758435
-0.00218865
-0.00838535
-0.00758705
-0.00565758
-0.00805555
-0.00758485
-0.000699786
-0.00538958
-0.00806073
-0.0041681
-0.00804533
-0.00302067
-0.00679521
-0.00224377
-0.00641404
-0.00777467
-0.00812886
-0.00805183
-0.00801367
-0.00808671
-0.00634614
-0.00688012
-0.00339823
-0.00803545
-0.00670001
-0.00726407
-0.00823399
-0.00669421
-0.00537899
-0.00800079
-0.00831401
-0.00820664
-0.00790606
-0.00674174
-0.00624305
-0.00241634
-0.00821972
-0.00841128
-0.00720682
-0.00314298
-0.00706054
-0.00475758
-0.00413067
-0.00806349
-0.00735096
-0.00750953
-0.00405081
-0.00428791
-0.00269683
-0.00754828
-0.00715613
-0.00737499
-0.00836075
-0.00797627
-0.00617331
-0.00784657
-0.00783686
-0.00685025
-0.00783385
-0.00759498
-0.00738081
-0.00709477
-0.00834398
-0.0080944
-0.007194
-0.000731261
-0.00800552
-0.00715993
-0.00836088
-0.00795961
-0.00710566
-0.00470309
-0.00805117
-0.00754142
-0.0078331
-0.00803394
-0.00812652
-0.00732105
-0.00641836
-0.00644718
-0.00632587
-0.00525161
-0.00407967
-0.00590381
-0.00551933
-0.00768779
-0.00661902
-0.00673435
-0.00771013
-0.00484772
-0.00684928
-0.00754127
-0.00802845
-0.00645722
-0.00433838
-0.00654969
-0.00619572
-0.00750322
-0.00732474
-0.00794582
-0.00451855
-0.00262901
-0.00676954
-0.00806564
-0.00676589
-0.00795131
-0.00465661
-0.00581905
-0.00659055
-0.0066475
-0.00471354
-0.00653366
-0.00693292
-0.00807863
-0.00446229
-0.00820958
-0.00677876
-0.0081459
-0.00626163
-0.00376571
-0.00717641
-0.00831078
-0.00259171
-0.0041199
-0.00835932
-0.00519317
-0.00758847
-0.00793027
-0.00604501
-0.00816847
-0.00051052
-0.00789882
-0.00660302
-0.00786868
-0.00700321
-0.00732516
-0.00678327
-0.00816102
-0.00819503
-0.00768887
-0.00332243
-0.00636227
-0.00808031
-0.00387733
-0.00739155
-0.00717193
-0.00826263
-0.00771575
-0.00803252
-0.00640366
-0.00725331
-0.00802477
-0.00633677
-0.00807475
-0.00771226
-0.00575154
-0.00534608
-0.00298225
-0.00474144
-0.00484157
-0.00700204
-0.00393988
-0.00612924
-0.00813385
-0.00806136
-0.00427406
-0.0077798
-0.0080219
-0.00317858
-0.00751894
-0.00763501
-0.00806517
-0.00735629
-0.00479834
-0.00656646
-0.00573618
-0.00779993
-0.00788823
-0.00687911
-0.00505557
-0.00787666
-0.00293946
-0.00517877
-0.00823736
-0.00598905
-0.0078833
-0.00470687
-0.00568322
-0.00460164
-0.00783006
-0.00376375
-0.00429667
-0.00316718
-0.00795727
-0.0048867
-0.00795645
-0.0061201
-0.0069469
-0.00789785
-0.00234109
-0.0081645
-0.00489121
-0.00801646
-0.00738375
-0.00540872
-0.00708299
-0.00449665
-0.00595443
-0.0079682
-0.00810568
-0.00733308
-0.00594066
-0.00574865
-0.0057778
-0.00751418
-0.00659855
-0.00577118
-0.00384868
-0.00675684
-0.00747988
-0.00797492
-0.00471069
-0.00409514
-0.00763119
-0.00709073
-0.0080361
-0.00655686
-0.00368762
-0.00810764
-0.00778319
-0.00806172
-0.00409684
-0.00710341
-0.00606459
-0.00797934
-0.00768628
-0.00360428
-0.00771945
-0.00689645
-0.00677746
-0.00604363
-0.00800386
-0.00795319
-0.00805703
-0.00720205
-0.00646021
-0.00725994
-0.00232427
-0.00380465
-0.00804492
-0.00653082
-0.00648125
-0.0037278
-0.00809769
-0.00734493
-0.0079718
-0.0080691
-0.00600925
-0.00845984
-0.0057242
-0.00603319
-0.00740875
-0.00725647
-0.00610139
-0.00779356
-0.00806965
-0.00581046
-0.00739867
-0.00533883
-0.00818993
-0.00345402
-0.00468883
-0.00786851
-0.00542013
-0.00693776
-0.00801081
-0.0079108
-0.0053167
-0.007791
-0.00232362
-0.00811373
-0.00804373
-0.00721907
-0.00801494
-0.00795951
-0.00671696
-0.00735672
-0.00817704
-0.00790595
-0.00577753
-0.00638334
-0.00637466
-0.00716146
-0.00609779
-0.00621665
-0.00588688
-0.00804009
-0.0042663
-0.00408738
-0.00812698
-0.00171809
-0.00759689
-0.00780316
-0.00477565
-0.00798872
-0.00442943
-0.00818454
-0.00779976
-0.00422216
-0.00769627
-0.00813579
-0.00682869
-0.00478491
-0.00616163
-0.00632517
-0.00506991
-0.0078866
-0.00723519
-0.0081149
-0.00818086
-0.00670982
-0.00628632
-0.00811454
-0.00669603
-0.00775117
-0.00802304
-0.00739783
-0.00753071
-0.00552933
-0.00835824
-0.00800277
-0.0083696
-0.00744529
-0.00770933
-0.00770065
-0.00689572
-0.000266882
-0.00774344
-0.0079996
-0.00523665
-0.000810414
-0.0077004
-0.00598988
-0.00778612
-0.00823706
-0.00801501
-0.00723594
-0.00755863
-0.00333727
-0.00791437
-0.00236697
-0.00452696
-0.00838448
-0.00388066
-0.00721546
-0.00593467
-0.00348509
-0.00648897
-0.00561977
-0.00815783
-0.0081009
-0.00808257
-0.00641166
-0.00702197
-0.00468736
-0.00818326
-0.00764196
-0.00773097
-0.00801559
-0.00805944
-0.00291021
-0.00720916
-0.00413851
-0.00450595
-0.00772515
-0.00677668
-0.00738865
-0.00818479
-0.00444552
-0.00656014
-0.0063649
-0.00593623
-0.00738023
-0.00775948
-0.00793576
-0.00796581
-0.00806468
-0.00635615
-0.00714956
-0.00822111
-0.00811354
-0.0073333
-0.00619027
-0.00786831
-0.00808764
-0.00634261
-0.00759515
-0.00603632
-0.00328044
-0.00706431
-0.00310823
-0.00682072
-0.00564278
-0.00810466
-0.00604581
-0.00706215
-0.00805314
-0.00746537
-0.00792156
-0.00787194
-0.00801049
-0.00560603
-0.00737355
-0.00765871
-0.00808475
-0.00805631
-0.00790999
-0.00746839
-0.00320042
-0.00694949
-0.00443402
-0.00761323
-0.00749178
-0.00678331
-0.00791858
-0.00739211
-0.00624572
-0.00681921
-0.00577756
-0.006086
-0.00803684
-0.00790965
-0.00840981
-0.00677933
-0.00300249
-0.00781278
-0.00553871
-0.008096
-0.00815123
-0.00625602
-0.00694258
-0.00810067
-0.00626693
-0.00734318
-0.00733007
-0.00560671
-0.00762023
-0.00688827
-0.00385803
-0.00730154
-0.00485828
-0.00756517
-0.00504299
-0.00726547
-0.00608674
-0.00731086
-0.000822696
-0.00806388
-0.00792097
-0.00541739
-0.00660502
-0.00832175
-0.00778788
-0.00255719
-0.0043769
-0.00665601
-0.0081304
-0.00385047
-0.00793717
-0.00774853
-0.00391247
-0.0015838
-0.00611146
-0.00821502
-0.00809716
-0.00816622
-0.00789712
-0.00731018
-0.00738546
-0.00817031
-0.00726937
-0.00869672
-0.00844695
-0.0071669
-0.00753744
-0.0079196
-0.00808258
-0.00765611
-0.0059158
-0.00054054
-0.00573031
-0.00796877
-0.00669596
-0.00534468
-0.0062818
-0.00812992
-0.00220708
-0.00438531
-0.0069752
-0.00542316
-0.00523318
-0.00847756
-0.00807241
-0.00677907
-0.00304943
-0.00817583
-0.006123
-0.00485607
-0.00797541
-0.00192867
-0.0075458
-0.00516877
-0.00401359
-0.00611731
-0.00694016
-0.00592629
-0.00806667
-0.00791368
-0.00660704
-0.00714329
-0.00704992
-0.0048466
-0.00320214
-0.00595919
-0.00515616
-0.00506672
-0.00600286
-0.00773757
-0.00803058
-0.00778335
-0.00816346
-0.00623474
-0.00308771
-0.00387951
-0.00357543
-0.00821371
-0.00737755
-0.0064127
-0.00566089
-0.00670898
-0.00711113
-0.00589946
-0.0078684
-0.00690163
-0.00677343
-0.00801474
-0.0049714
-0.00573533
-0.00657567
-0.00611824
-0.00664377
-0.00718122
-0.00829963
-0.00754356
-0.00723552
-0.00751559
-0.00609609
-0.00840093
-0.00687755
-0.0061859
-0.00380936
-0.00791547
-0.00550024
-0.00771728
-0.0075827
-0.00827573
-0.00744209
-0.00816472
-0.00718582
-0.00762927
-0.00708471
-0.00782195
-0.00797863
-0.00807763
-0.00802618
-0.00710521
-0.00309321
-0.00814508
-0.00749497
-0.00789719
-0.00812857
-0.00540158
-0.00726794
-0.00647854
-0.00598596
-0.00777865
-0.00683885
-0.00833152
-0.00806347
-0.00695001
-0.00531646
-0.00827579
-0.0065267
-0.00766218
-0.00790351
-0.00796409
-0.00295957
-0.00177262
-0.00659578
-0.00810868
-0.00445061
-0.00679944
-0.00355991
-0.00798681
-0.00660249
-0.00641617
-0.0077853
-0.00781582
-0.00718823
-0.00345046
-0.00636762
-0.00736012
-0.00610029
-0.00244637
-0.0082166
-0.00564401
-0.00610629
-0.00771265
-0.00655044
-0.00635474
-0.00702414
-0.0077378
-0.0064644
-0.00816111
-0.00610298
-0.00636831
-0.00852159
-0.00724212
-0.00784243
-0.00742969
-0.00774713
-0.0060226
-0.0043548
-0.00800831
-0.0083659
-0.00602899
-0.00796584
-0.00569899
-0.00750462
-0.00788325
-0.00608724
-0.00741376
-0.00805564
-0.0066384
-0.00814134
-0.00771199
-0.00801452
-0.00804267
-0.00332909
-0.00637458
-0.00702729
-0.00822748
-0.00634431
-0.00670409
-0.00618049
-0.00531602
-0.00792435
-0.00793441
-0.00777049
-0.00823237
-0.00785054
-0.00767268
-0.00775003
-0.00813368
-0.00806086
-0.00426839
-0.00756757
-0.00818987
-0.00755537
-0.00292507
-0.00812872
-0.00678089
-0.00788629
-0.00323783
-0.00417349
-0.00800477
-0.00647934
-0.00351769
-0.0070225
-0.00364108
-0.0083336
-0.00825029
-0.00701253
-0.00693422
-0.00803736
-0.00764832
-0.00561339
-0.00700679
-0.00840585
-0.00497275
-0.00705814
-0.00802021
-0.00722203
-0.00329556
-0.00745535
-0.00794835
-0.0079754
-0.00800919
-0.00801114
-0.00659789
-0.00809329
-0.00773384
-0.00462307
-0.00773301
-0.00807193
-0.00587429
-0.0080981
-0.00599415
-0.00269414
-0.00655651
-0.00647316
-0.00797213
-0.00256316
-0.00628935
-0.00252698
-0.00736719
-0.00811077
-0.00365869
-0.00397993
-0.004623
-0.00764929
-0.00751116
-0.00550738
-0.00828765
-0.00736118
-0.00231392
-0.00683153
-0.00522449
-0.00771549
-0.00830292
-0.0032301
-0.00820376
-0.00684254
-0.00806445
-0.00375133
-0.00640768
-0.00804782
-0.00643664
-0.00649705
-0.00751097
-0.00861362
-0.00800629
-0.00400026
-0.00474095
-0.00773021
-0.0063483
-0.00687455
-0.00335728
-0.00489451
-0.00595644
-0.00789952
-0.00608758
-0.00760961
-0.00274638
-0.00818978
-0.00550558
-0.00705418
-0.00756052
-0.00765005
-0.00319207
-0.00802921
-0.00257187
-0.00620456
0.0016706
-0.00703068
-0.00722157
-0.00800057
-0.00639826
-0.00779276
-0.00551767
-0.00765393
-0.00462843
-0.00737479
-0.00804956
-0.00321039
-0.00289208
-0.00393358
-0.0058511
-0.00517899
-0.00795304
-0.0058184
-0.0078169
-0.00818017
-0.00247427
-0.0063092
-0.00623521
-0.00816965
-0.0067542
-0.00735127
-0.00738036
-0.00700425
-0.00427634
-0.00485083
-0.00802864
-0.00331917
-0.0059902
-0.00814357
-0.00805963
-0.00793737
-0.00492953
-0.00797944
-0.00531699
-0.00692387
-0.00799877
-0.00796699
-0.00760766
-0.00422116
-0.00815089
-0.00759396
-0.00350355
-0.0079201
-0.00494956
-0.00659194
-0.00676382
-0.00454177
-0.0076747
-0.00805471
-0.00645635
-0.00392153
-0.00582347
-0.00605571
-0.00331699
-0.00649015
-0.00727724
-0.00767545
-0.0025556
-0.006789
-0.00712044
-0.00721532
-0.00744244
-0.00837908
-0.00553642
-0.00684601
-0.0076376
-0.0079883
-0.00709295
-0.00759604
-0.00683001
-0.00777917
-0.00440407
-0.00802651
-0.00417535
-0.00598815
-0.0056793
-0.00759917
-0.00546069
-0.00822894
-0.00807039
-0.00765462
-0.00479297
-0.00787572
-0.00555836
-0.00841674
-0.00833909
-0.00782393
-0.00586731
-0.00600765
-0.0078009
-0.00731786
-0.00623513
-0.0076507
-0.007473
-0.00740804
-0.00806907
-0.00665579
-0.00846964
-0.00716977
-0.00806675
-0.00751262
-0.00593033
-0.0037234
-0.00809079
-0.00241953
-0.00461941
-0.00806518
-0.00165243
-0.00808472
-0.0047922
-0.00785281
-0.00786207
-0.00646524
-0.00542141
-0.00807337
-0.00698826
-0.00796006
-0.00709224
-0.00754853
-0.00820136
-0.00812457
-0.00559943
-0.00433106
-0.00564499
-0.00717926
-0.0072907
-0.00803493
-0.00557177
-0.00799607
-0.00807176
-0.00656749
-0.00656017
-0.00574526
-0.00647644
-0.00662793
-0.00810251
-0.00216459
-0.00514267
-0.00810667
-0.00763496
-0.0073801
-0.00812147
-0.00675291
-0.0040879
-0.00579199
-0.00640075
-0.0055444
-0.00753356
-0.00401997
-0.00792213
-0.00831998
-0.00350222
-0.00398361
-0.0063727
-0.0084277
-0.00682412
-0.00778274
-0.00140743
-0.0079357
-0.00768489
-0.00750087
-0.00744635
-0.0059891
-0.00809674
-0.00723101
-0.00774289
-0.0051381
-0.00757557
-0.0080906
-0.00792533
-0.00792774
-0.00613845
-0.0050716
-0.00451853
-0.00747937
-0.0070362
-0.00806362
-0.00662496
-0.00467072
-0.00742633
-0.00802842
-0.00430642
-0.00690376
-0.00627228
-0.00496261
-0.00460442
-0.00616205
-0.00586441
-0.00507261
-0.00773509
-0.00695404
-0.00495925
-0.00767484
-0.0032305
-0.00805259
-0.00836131
-0.00726931
-0.00411354
-0.00807043
-0.00634087
-0.00324704
-0.0072708
-0.0079343
-0.00708454
-0.00418271
-0.00813711
-0.00787972
-0.00790236
-0.00646102
-0.00788021
-0.00822771
-0.00479654
-0.00403417
-0.007296
-0.0035139
-0.00449235
-0.00713517
-0.00675889
-0.00791588
-0.00851047
-0.00550257
-0.00471578
-0.0075299
-0.00529854
-0.00786719
-0.00668495
-0.00757101
-0.00523869
-0.00796463
-0.00734738
-0.00687424
-0.00480197
-0.00585237
-0.00704012
-0.00265526
-0.00694914
-0.00723873
-0.00802493
-0.00227432
-0.00805235
-0.00749219
-0.00699861
-0.00616335
-0.00500866
-0.00398886
-0.00680006
-0.0080824
-0.0045479
-0.00791089
-0.00694686
-0.0062779
-0.00436852
-0.00731633
-0.00814649
-0.00815885
-0.00684528
-0.0074008
-0.00804998
-0.00392383
-0.00597487
-0.00803331
-0.00698277
-0.00603571
-0.00781291
-0.00662507
-0.0080841
-0.00777652
-0.00785713
-0.00824719
-0.00694166
-0.00710372
-0.00638496
-0.00763632
-0.00647943
-0.00797464
-0.00494578
-0.00755729
-0.00673758
-0.00766287
-0.00383635
-0.00748689
-0.00772094
-0.00764651
-0.00531767
-0.00662321
-0.00383179
-0.00734106
-0.00658998
-0.000238454
-0.00812438
-0.00593028
-0.00697565
-0.00614588
-0.00799683
-0.00832196
-0.00805142
-0.00504452
-0.00804726
-0.00817969
-0.0083066
-0.00710442
-0.00803849
-0.00787391
-0.00726794
-0.00382692
-0.00661771
-0.0080246
-0.00809336
-0.00744006
-0.00372587
-0.00699222
-0.00550788
-0.00587656
-0.00650118
-0.00540938
-0.00548765
-0.0056353
-0.00803947
-0.00480476
-0.00592432
-0.0057157
-0.00705906
-0.00715253
-0.00749818
-0.00792437
-0.00809455
-0.00805621
-0.00690553
-0.00795819
-0.00760176
-0.0071074
-0.00822356
-0.00795177
-0.00708839
-0.00786403
-0.00694443
-0.00859184
-0.00829051
-0.00559368
-0.00744565
-0.00652642
-0.00683197
-0.00807426
-0.00685716
-0.00775653
-0.00672893
-0.00732269
-0.00834834
-0.00643185
-0.00664951
-0.00820374
-0.00819996
-0.00751235
-0.00834407
-0.00813499
-0.00790952
-0.00541774
-0.00806142
-0.00699286
-0.00777938
-0.00802705
-0.00799287
-0.00811447
-0.00684424
-0.00791512
-0.00635367
-0.00695921
-0.00773574
-0.00763489
-0.00814356
-0.00776574
-0.00406932
-0.00668799
-0.00377535
-0.00807583
-0.00410621
-0.00745819
-0.00727805
-0.00681702
-0.00771342
-0.00811392
-0.00532936
-0.00802219
-0.00733584
-0.00754199
-0.00847908
-0.00806842
-0.00561947
-0.00805003
-0.0071984
-0.00805827
-0.00745464
-0.00755768
-0.00806091
-0.00776307
-0.00805554
-0.00773962
-0.00617813
-0.0076548
-0.00392646
-0.00802939
-0.00350933
-0.00766631
-0.00806746
-0.00802758
8.75643e-05
-0.00773522
-0.00780324
-0.00783374
-0.00769842
-0.00632367
-0.00402213
-0.00744596
-0.0079539
-0.00534071
-0.00676263
-0.00860889
-0.00818765
-0.00802437
-0.007255
-0.00334713
-0.00464893
-0.00664454
-0.00755328
-0.00800921
-0.00291898
-0.00817124
-0.00807518
-0.00733632
-0.00805725
-0.00304964
-0.00773846
-0.0082077
-0.00811361
-0.00682833
-0.00109091
-0.00820043
-0.00670184
-0.00728632
-0.00547261
-0.00649119
-0.00727092
-0.00806441
