1409
-0.0070667
-0.00710208
-0.00720302
-0.00695224
-0.00461939
-0.00711735
-0.00721797
-0.00551735
-0.00705128
-0.00728408
-0.0062259
-0.00717374
-0.00689575
-0.00633398
-0.00712761
-0.00703299
-0.00727668
-0.00673747
-0.00692604
-0.00672836
-0.0031338
-0.00693916
-0.00698671
-0.00683532
-0.00477214
-0.00652877
-0.00395836
-0.00691173
-0.00559286
-0.00700301
-0.00674865
-0.00727248
-0.00708806
-0.00647008
-0.00724559
-0.0067594
-0.00629164
-0.00704383
-0.00721087
-0.00648046
-0.00733781
-0.0073378
-0.00725832
-0.00666185
-0.00623858
-0.00677111
-0.00703501
-0.00723937
-0.00731124
-0.0066241
-0.00722314
-0.00667788
-0.00717715
-0.00335456
-0.00735263
-0.00562275
-0.00723943
-0.00709131
-0.0073217
-0.00346875
-0.00704123
-0.00598154
-0.00718692
-0.00580881
-0.0067903
-0.00645719
-0.00732725
-0.00716907
-0.00735412
-0.00647781
-0.0071209
-0.00717109
-0.00724106
-0.00727642
-0.00420676
-0.00566655
-0.00719213
-0.00697306
-0.00714828
-0.00728386
-0.00537839
-0.00708581
-0.0071499
-0.00723973
-0.00723038
-0.00713968
-0.00732582
-0.00568808
-0.00721036
-0.00603302
-0.00519861
-0.00698635
-0.00730817
-0.00598239
-0.00727114
-0.00733042
-0.00395401
-0.00730759
-0.00350018
-0.0055131
-0.00721591
-0.00731344
-0.00609458
-0.00625454
-0.00731406
-0.00639634
-0.0061713
-0.00722003
-0.00602633
-0.0066775
-0.00504075
-0.0070995
-0.00514729
-0.00608768
-0.00542283
-0.00613492
-0.00638634
-0.00589415
-0.00526437
-0.00734846
-0.00726007
-0.00700036
-0.00733925
-0.0066578
-0.00677033
-0.00319067
-0.00649081
-0.00688714
-0.00734557
-0.00727107
-0.00702912
-0.00731706
-0.00723442
-0.00714033
-0.0066714
-0.00722191
-0.00582706
-0.00726243
-0.00687676
-0.00724714
-0.0073087
-0.00668899
-0.00528297
-0.00626591
-0.00630775
-0.00509057
-0.00618471
-0.00718333
-0.00647942
-0.00733064
-0.00693004
-0.00734891
-0.006104
-0.00655364
-0.00322026
-0.00718962
-0.007211
-0.00712163
-0.00699758
-0.00687569
-0.0065491
-0.0071108
-0.00608298
-0.00734368
-0.00723248
-0.00492733
-0.00416879
-0.00735522
-0.00702959
-0.00668687
-0.00716345
-0.00608123
-0.00566403
-0.00616042
-0.00711612
-0.0072635
-0.00505193
-0.00668398
-0.00563718
-0.00729492
-0.00726335
-0.0073523
-0.00656497
-0.00526131
-0.00379887
-0.00734122
-0.00645931
-0.00726972
-0.00348298
-0.00650546
-0.00735194
-0.00124058
-0.00709467
-0.00652284
-0.00698717
-0.00559374
-0.00693543
-0.00308012
-0.00703626
-0.00722648
-0.00639
-0.00733661
-0.00721765
-0.00383577
-0.00572917
-0.00734666
-0.00550215
-0.00733723
-0.00523104
-0.00702694
-0.00489366
-0.00671506
-0.00705736
-0.00710352
-0.00705894
-0.00721342
-0.00701756
-0.00589242
-0.00685854
-0.00506013
-0.00726813
-0.00693581
-0.00714782
-0.0072534
-0.00614912
-0.0057185
-0.00735753
-0.00723691
-0.00718506
-0.00727383
-0.00678801
-0.00680942
-0.0031141
-0.00719456
-0.0071112
-0.00689884
-0.00353164
-0.00723375
-0.00499262
-0.00507943
-0.00735552
-0.00639497
-0.00706389
-0.00417183
-0.00639126
-0.00339427
-0.00638438
-0.00595246
-0.00722672
-0.00720742
-0.00734485
-0.00663532
-0.00723416
-0.00720062
-0.00701781
-0.00726829
-0.00715822
-0.00720719
-0.00724398
-0.00722154
-0.00734349
-0.00642895
-0.00174866
-0.00730496
-0.00681313
-0.00702576
-0.00733683
-0.00669377
-0.00471279
-0.00735427
-0.00727656
-0.00728662
-0.00727719
-0.00723693
-0.00716595
-0.00706524
-0.00668857
-0.00662461
-0.00645118
-0.00575631
-0.00637804
-0.00636273
-0.00706676
-0.00608331
-0.0070474
-0.00711754
-0.00598108
-0.00695032
-0.00730575
-0.00734542
-0.00656108
-0.00612015
-0.00666306
-0.00624326
-0.00697854
-0.00718382
-0.00682805
-0.00593255
-0.00271568
-0.00670798
-0.00734345
-0.00630811
-0.00733691
-0.00465307
-0.00662451
-0.00702407
-0.00694804
-0.00528354
-0.00668601
-0.00722796
-0.00733951
-0.00603368
-0.00724996
-0.00731447
-0.00542165
-0.00698349
-0.00678434
-0.00729423
-0.00646517
-0.00732307
-0.00316726
-0.00699621
-0.00732071
-0.00726625
-0.0073401
-0.00735088
-0.0061139
-0.00728493
-0.00710854
-0.00733285
-0.00578294
-0.00585425
-0.00538923
-0.00700948
-0.0055374
-0.00579052
-0.00572418
-0.00698218
-0.00598024
-0.00587695
-0.00730961
-0.00387015
-0.00731063
-0.00680106
-0.00631474
-0.00727049
-0.00587878
-0.00726124
-0.00692572
-0.0059617
-0.00631686
-0.00722636
-0.00673753
-0.00629677
-0.00630757
-0.00613903
-0.00666895
-0.00719114
-0.00692697
-0.00690589
-0.007171
-0.00632625
-0.00670946
-0.00677094
-0.00716726
-0.00714477
-0.00729133
-0.00719457
-0.00660347
-0.00700871
-0.007026
-0.00733265
-0.00674473
-0.00710923
-0.00620349
-0.00718195
-0.00615653
-0.00125119
-0.00733015
-0.00735263
-0.00656634
-0.0019429
-0.00608555
-0.00648789
-0.0072199
-0.00710839
-0.00727851
-0.00701895
-0.00697257
-0.00548498
-0.00731627
-0.00319766
-0.00504425
-0.00713916
-0.00574433
-0.00683522
-0.00637838
-0.00577077
-0.00666264
-0.00657931
-0.00729532
-0.00700298
-0.00703168
-0.00673752
-0.00697129
-0.00613531
-0.00720497
-0.00713921
-0.00714765
-0.00735211
-0.00735563
-0.00469179
-0.00725316
-0.00635895
-0.00610797
-0.00731313
-0.00670047
-0.00723726
-0.00689154
-0.00624223
-0.00689183
-0.00689873
-0.00678478
-0.00713435
-0.0073312
-0.00719087
-0.00677125
-0.00714424
-0.00712053
-0.00715669
-0.00722478
-0.00698156
-0.00700613
-0.00663465
-0.00732249
-0.00730704
-0.00688567
-0.00722207
-0.00655497
-0.00497115
-0.00660693
-0.00448035
-0.00622032
-0.00537182
-0.00691743
-0.00689541
-0.00663288
-0.00735585
-0.00729755
-0.00733819
-0.00730132
-0.00735115
-0.00629401
-0.00712619
-0.00680023
-0.00730653
-0.00735617
-0.00668492
-0.007279
-0.00552583
-0.00686044
-0.00601387
-0.00702887
-0.00674466
-0.00719025
-0.00719882
-0.00708007
-0.00595995
-0.00717388
-0.00618958
-0.00612351
-0.00733823
-0.00721682
-0.00685774
-0.00642162
-0.0034764
-0.00691338
-0.00653842
-0.00732213
-0.00713021
-0.00585781
-0.00709387
-0.00695652
-0.00678707
-0.0070532
-0.00711104
-0.00541132
-0.00731479
-0.00618529
-0.00398601
-0.00715605
-0.00586439
-0.00645082
-0.00618683
-0.00714889
-0.0058142
-0.00716535
-0.00180449
-0.00735246
-0.00734515
-0.00667558
-0.00651982
-0.00721586
-0.00720117
-0.0038443
-0.00639786
-0.00619349
-0.00671596
-0.00610178
-0.00728734
-0.00724446
-0.00572661
-0.00318263
-0.0058304
-0.00721209
-0.00705453
-0.00673164
-0.00733899
-0.00728069
-0.0070781
-0.00709458
-0.00641242
-0.00690802
-0.00715887
-0.00667855
-0.00671184
-0.00702086
-0.00731394
-0.00673729
-0.0066326
-0.00152417
-0.00703436
-0.00727123
-0.0068961
-0.00543958
-0.00707435
-0.00730566
-0.00407316
-0.00439088
-0.0063325
-0.00629497
-0.00494949
-0.00702844
-0.00734467
-0.00649887
-0.0048397
-0.00724708
-0.00586061
-0.00633199
-0.00731608
-0.00316594
-0.00716116
-0.00638136
-0.0042856
-0.00666621
-0.00721613
-0.00632226
-0.00735352
-0.00721867
-0.00687614
-0.0071559
-0.00724461
-0.00632569
-0.00625619
-0.00571423
-0.00592975
-0.00601646
-0.00642981
-0.007026
-0.00735547
-0.00663343
-0.00726902
-0.00627896
-0.00544626
-0.00631599
-0.00563108
-0.00689024
-0.00717635
-0.00663964
-0.0067117
-0.00679464
-0.00710845
-0.00647759
-0.00734332
-0.00610595
-0.00682927
-0.00733761
-0.00569885
-0.0065871
-0.00711383
-0.00686656
-0.00600555
-0.00698423
-0.0070867
-0.00647501
-0.00725889
-0.00704136
-0.00577684
-0.00719261
-0.00713533
-0.00673441
-0.00404496
-0.00697805
-0.00690673
-0.00718049
-0.00715177
-0.00722175
-0.00729349
-0.0072316
-0.00680623
-0.00730015
-0.00706935
-0.00728831
-0.00724675
-0.00712869
-0.00732905
-0.00646277
-0.00578735
-0.00710437
-0.00717298
-0.00728122
-0.00731334
-0.0060785
-0.00727125
-0.00670773
-0.00707784
-0.00694759
-0.0072033
-0.00689221
-0.00735208
-0.00708649
-0.006156
-0.00719008
-0.00620202
-0.00731854
-0.00731045
-0.006906
-0.00536264
-0.00388665
-0.00656139
-0.00732669
-0.00615436
-0.00676755
-0.00555547
-0.00728785
-0.00691422
-0.00641444
-0.00728252
-0.00728592
-0.00696261
-0.0055226
-0.00689837
-0.00669743
-0.00642031
-0.00531565
-0.00725572
-0.00594541
-0.00601708
-0.00698292
-0.00689352
-0.00710926
-0.00630453
-0.00677532
-0.00615291
-0.00713445
-0.00551064
-0.0069707
-0.00703412
-0.0065425
-0.0072488
-0.00715229
-0.00718328
-0.0068667
-0.00632997
-0.00724886
-0.00715456
-0.00655042
-0.00733636
-0.0060628
-0.00666034
-0.00717499
-0.0057736
-0.00717843
-0.00733229
-0.00600785
-0.00686738
-0.0070959
-0.00716128
-0.00734636
-0.0052757
-0.00699281
-0.00701678
-0.00699588
-0.00593648
-0.00676201
-0.00710598
-0.00627764
-0.00731896
-0.00726739
-0.00728975
-0.0067968
-0.00727713
-0.00727112
-0.00721751
-0.00731214
-0.00735122
-0.00512852
-0.0072177
-0.00659085
-0.00701343
-0.00533382
-0.00707812
-0.00689967
-0.00716285
-0.00359594
-0.00425825
-0.00728773
-0.00673774
-0.00590603
-0.00723807
-0.00495621
-0.00702561
-0.00713444
-0.00615914
-0.00672556
-0.00734512
-0.00723502
-0.00626448
-0.00633758
-0.00716611
-0.00677645
-0.00723194
-0.00729038
-0.00725939
-0.00368226
-0.00669633
-0.00706497
-0.00687783
-0.00725824
-0.00705039
-0.00630116
-0.00731494
-0.00725756
-0.00602176
-0.00669908
-0.00735028
-0.00669806
-0.00677788
-0.00656865
-0.00522287
-0.0061529
-0.0064741
-0.00728121
-0.0040944
-0.00606922
-0.00456078
-0.00728458
-0.00703354
-0.00566346
-0.00413941
-0.00594953
-0.00713837
-0.00636627
-0.00694057
-0.00724765
-0.00725722
-0.00504317
-0.00710726
-0.00493844
-0.00721059
-0.00704001
-0.0053843
-0.00705359
-0.00719712
-0.00735387
-0.00583451
-0.00684381
-0.00735376
-0.00609181
-0.00662988
-0.00669066
-0.0070433
-0.00733731
-0.00587278
-0.00625656
-0.00727359
-0.00583712
-0.00716814
-0.00521729
-0.00685291
-0.00491809
-0.00727302
-0.00562898
-0.00666976
-0.00551278
-0.00719889
-0.00691356
-0.00698895
-0.00624774
-0.00726173
-0.00355262
-0.00734286
-0.0047134
-0.00704312
0.00181539
-0.00686136
-0.00711458
-0.00660358
-0.0067867
-0.00671686
-0.00652611
-0.00720327
-0.00644969
-0.00699719
-0.00730888
-0.00369816
-0.0035491
-0.00574855
-0.00617722
-0.00574534
-0.00734493
-0.0055199
-0.006686
-0.00729126
-0.00315323
-0.006863
-0.00682778
-0.00720238
-0.00608862
-0.0060557
-0.00661132
-0.00668644
-0.00666421
-0.00633843
-0.00735365
-0.00523416
-0.00660228
-0.00730699
-0.00735532
-0.00734844
-0.00623472
-0.00730945
-0.00614308
-0.00695733
-0.00733606
-0.00734316
-0.0061548
-0.00595245
-0.00712448
-0.00678727
-0.00604587
-0.00692464
-0.00594021
-0.00665015
-0.00716779
-0.00650368
-0.00724842
-0.0073493
-0.00620037
-0.00548973
-0.00509306
-0.00702886
-0.00497792
-0.00609126
-0.00685696
-0.00717348
-0.00456437
-0.00706286
-0.00714693
-0.00598252
-0.00700492
-0.0070067
-0.00676414
-0.00660616
-0.00674624
-0.00696178
-0.00718498
-0.00729904
-0.00698242
-0.00721496
-0.00440564
-0.00730559
-0.005923
-0.00622964
-0.00594179
-0.00723659
-0.00642587
-0.0071815
-0.00660499
-0.00725764
-0.00663567
-0.00621857
-0.00660322
-0.00701237
-0.00718661
-0.00694283
-0.00687434
-0.00652792
-0.00721534
-0.00727902
-0.00579809
-0.00711748
-0.00721211
-0.0071883
-0.00735115
-0.00596632
-0.007136
-0.00726053
-0.00729171
-0.00709323
-0.00677941
-0.00567168
-0.00731683
-0.00309796
-0.00541016
-0.00735314
-0.00368517
-0.00698939
-0.00629909
-0.00680364
-0.00725905
-0.00658189
-0.00538517
-0.0073177
-0.007136
-0.00735153
-0.00696252
-0.00728785
-0.0072094
-0.007278
-0.00520358
-0.00599677
-0.00660201
-0.00702197
-0.00621645
-0.00728066
-0.00638095
-0.00726262
-0.00734513
-0.00703858
-0.00686614
-0.00583727
-0.00607256
-0.00712621
-0.00699911
-0.00401593
-0.00650725
-0.00697624
-0.00729206
-0.00704735
-0.00731862
-0.00621775
-0.0042065
-0.00547987
-0.00659471
-0.00632501
-0.00715926
-0.00413492
-0.0073369
-0.00718981
-0.00606769
-0.00586743
-0.00595218
-0.00712373
-0.00603968
-0.00723342
-0.00454624
-0.00670428
-0.00708429
-0.00697022
-0.00703072
-0.00655239
-0.00733166
-0.00677493
-0.00692012
-0.00615418
-0.00609747
-0.00700564
-0.00730667
-0.00730312
-0.00575831
-0.00676537
-0.00588414
-0.0072832
-0.00711898
-0.0073544
-0.00588639
-0.00660146
-0.00729323
-0.00733429
-0.00653089
-0.00708765
-0.00636304
-0.00672399
-0.00653856
-0.0067208
-0.00673428
-0.0065703
-0.00722344
-0.00646625
-0.00621892
-0.00725
-0.00371583
-0.00723165
-0.00719657
-0.00709472
-0.00418806
-0.00705372
-0.00691436
-0.00528563
-0.00709099
-0.00700716
-0.00698961
-0.00580704
-0.00730426
-0.00731103
-0.00718465
-0.00697078
-0.00724537
-0.00713485
-0.00597855
-0.00558369
-0.00647316
-0.00427858
-0.00615101
-0.00714436
-0.00633562
-0.00725211
-0.00704917
-0.00619466
-0.00628134
-0.00721307
-0.00682762
-0.00729569
-0.00656241
-0.00699017
-0.00613982
-0.00732515
-0.00714244
-0.00691492
-0.0064518
-0.00556578
-0.00720557
-0.00407018
-0.00601787
-0.00669728
-0.00731817
-0.00401129
-0.00735237
-0.00723536
-0.00618885
-0.00597489
-0.00628291
-0.0041662
-0.00697761
-0.00716342
-0.00633711
-0.00732001
-0.00670074
-0.00706692
-0.00437536
-0.00710553
-0.00730543
-0.00725658
-0.00682314
-0.0065027
-0.00734604
-0.00418105
-0.00612178
-0.00731845
-0.00682957
-0.00535658
-0.0072779
-0.00676239
-0.00734891
-0.00728253
-0.00720062
-0.00701793
-0.00578018
-0.00714153
-0.00651961
-0.00712977
-0.00613494
-0.00734064
-0.00649964
-0.00717875
-0.00680138
-0.00713855
-0.00524779
-0.00709951
-0.00726944
-0.00731232
-0.00575036
-0.00703752
-0.00572234
-0.0072766
-0.00714699
-0.00224556
-0.00732864
-0.00539081
-0.00696406
-0.0067634
-0.00733207
-0.00719163
-0.00733756
-0.00659008
-0.00731659
-0.00728918
-0.00720515
-0.00722653
-0.00733652
-0.00723129
-0.00665669
-0.00622185
-0.00716504
-0.00733709
-0.00704383
-0.0072884
-0.00538907
-0.00683918
-0.00613439
-0.00684403
-0.00667646
-0.00649374
-0.0057019
-0.00632709
-0.00693564
-0.00611636
-0.00651634
-0.00665007
-0.00686093
-0.00692711
-0.00711748
-0.00731917
-0.00733987
-0.00735453
-0.00712096
-0.00683887
-0.00706459
-0.0069071
-0.00725174
-0.0073178
-0.0071891
-0.00728932
-0.00722974
-0.00696542
-0.00724748
-0.0056758
-0.00703824
-0.00683268
-0.00576715
-0.00734557
-0.00714615
-0.00729049
-0.00718237
-0.00720274
-0.00712799
-0.00698789
-0.00650142
-0.00727239
-0.00722152
-0.00706846
-0.00716169
-0.00724044
-0.00724875
-0.00639468
-0.00734862
-0.00580734
-0.0072982
-0.00730328
-0.00720285
-0.00732249
-0.00685031
-0.00684122
-0.00673252
-0.00692068
-0.00686755
-0.00731607
-0.00718105
-0.00678218
-0.0056968
-0.00655217
-0.00393804
-0.00734653
-0.00418832
-0.00688219
-0.00598546
-0.00606467
-0.00619082
-0.00733294
-0.00605496
-0.00685116
-0.00718266
-0.0072579
-0.0070528
-0.00735447
-0.00563306
-0.00696788
-0.00663016
-0.00734991
-0.00703592
-0.0071612
-0.00735604
-0.00732526
-0.00734956
-0.00727551
-0.00540824
-0.00664398
-0.00636877
-0.00730545
-0.00556325
-0.00731839
-0.00735248
-0.00734067
-0.000937643
-0.00728028
-0.0068104
-0.00731699
-0.00723238
-0.00665113
-0.00429676
-0.00728729
-0.00734879
-0.00532711
-0.00612409
-0.00705637
-0.00725784
-0.00732436
-0.00725235
-0.0036625
-0.00604173
-0.00664899
-0.00693644
-0.00732188
-0.00533183
-0.00729023
-0.00705223
-0.00725111
-0.00700012
-0.00541101
-0.00684539
-0.00718384
-0.00688625
-0.00649546
-0.00221235
-0.00723692
-0.00708821
-0.00710644
-0.00499694
-0.00713326
-0.0072203
-0.00735455
-0.00603357
-0.00394095
-0.0062698
-0.00679184
-0.0062165
-0.00555125
-0.00696379
-0.00720243
-0.00734441
-0.00661223
-0.00732956
-0.00733019
-0.0071747
-0.00572732
-0.00579415
-0.00717417
-0.00708296
-0.00726273
-0.0059095
-0.00652003
-0.00734129
-0.00621731
-0.00730933
-0.00723822
-0.00731513
-0.00668952
-0.00667629
-0.00670394
-0.00698234
-0.00684887
-0.00548635
-0.00536639
-0.0060211
-0.00687747
-0.00730714
-0.00726909
-0.00275246
-0.00655184
-0.00727798
-0.0073113
-0.00705588
-0.00727403
-0.00631766
-0.00677508
-0.00610036
-0.00529069
-0.00729342
-0.00735297
-0.00671107
-0.0064828
-0.0058756
-0.00693306
-0.00725826
-0.00566136
-0.00366651
-0.00678191
-0.00729704
-0.00673334
-0.00540369
-0.00728607
-0.00636426
-0.0071943
-0.00662445
-0.00405041
-0.00359319
-0.0073329
-0.00355004
-0.00717055
-0.00560112
-0.0058472
-0.00724535
-0.00661646
-0.00681857
-0.00611431
-0.00654275
-0.00631572
-0.00513641
-0.00589008
-0.00392101
-0.00719276
-0.00725863
-0.00525486
-0.00717805
-0.00648148
-0.00615767
-0.00469657
-0.0046357
-0.00643814
-0.005425
-0.00709963
-0.00727689
-0.00357702
-0.00610836
-0.00710022
-0.00705934
-0.00655982
-0.00693971
-0.00635311
-0.00665113
-0.00721565
-0.00105908
-0.0073101
-0.00638598
-0.00458421
-0.00587255
-0.00716294
-0.00730657
-0.00687923
-0.00626082
-0.00728936
-0.00712762
-0.00653813
-0.00730952
-0.00705116
-0.00661106
-0.00697204
-0.00732726
-0.00726519
-0.00728299
-0.00634007
-0.00693732
-0.00686969
-0.00717282
-0.00716112
-0.00695194
-0.00602065
-0.0068122
-0.00732257
-0.0072094
-0.00731969
-0.00734827
-0.00719643
-0.00610673
-0.00712875
-0.00600756
-0.00734956
-0.00707388
-0.00510317
-0.00607425
-0.00678482
-0.0072725
-0.0068417
-0.0043914
-0.00723958
-0.00684657
-0.00727768
-0.00716987
-0.00730984
-0.00652348
-0.00734341
-0.00122651
-0.00716537
-0.00735338
-0.00714015
-0.00609027
-0.0047285
-0.00729057
