2878
0.0019955
0.00199383
0.00183443
0.00224748
0.00223716
0.00218103
0.00216699
0.00199397
0.00192964
0.00222277
0.00198073
0.00184255
0.00224499
0.00224917
0.00225012
0.00183716
0.00168368
0.00220208
0.0022452
-0.00310106
0.00223797
0.00208488
0.00223102
0.00202642
0.0017887
0.00181713
-0.00323199
0.00192681
0.00225044
0.00190065
0.00198586
0.0021226
0.00212273
0.00224346
0.00194184
0.000227238
0.00182608
0.00196218
0.00194197
0.00220287
0.00223505
0.00184206
0.00186048
-0.00610909
0.00188728
0.00216294
0.00224797
0.00222871
0.00225011
0.00173114
0.000701587
0.00214096
0.00208626
-0.00122656
0.00179327
0.00187766
-0.00381158
0.0017544
0.00210741
0.00199355
0.0012115
0.00224369
0.00193859
0.00224759
0.00180801
0.00218184
0.00169497
0.0019118
0.00209997
0.00179738
0.00213489
0.00223113
0.00199435
0.00222086
0.00200583
0.00223648
0.00169669
0.00198238
0.00200484
0.00192415
0.00223757
0.00216841
0.00179289
0.00192992
0.00200829
0.00193575
0.00207599
0.00224082
0.00220722
0.00224989
0.00104786
0.00197718
-0.0011574
0.00222337
0.00197484
0.00176427
0.00223546
0.00204482
0.00204194
0.00224073
0.00167642
-0.00321275
0.00178321
0.00198551
0.00191408
0.00179588
-0.00367509
0.00220498
0.00200449
-0.00542411
0.00202821
0.00204068
0.0022278
0.00132021
0.0020568
0.0022114
0.00205063
0.00224374
0.00191751
0.00224285
0.00165328
0.00175954
-0.000132858
0.00224965
0.0017508
0.00185639
0.00169812
0.00201546
0.00224312
0.00212339
0.00195149
0.00207277
0.00202419
0.0022463
0.00192539
0.00172913
0.00219265
0.0020073
0.00220104
0.00200452
0.00214848
0.00176228
0.00211506
-0.000209998
0.00219021
0.00199644
0.00218955
0.00172131
0.00194493
0.00187772
0.00225037
0.00224346
0.0019285
0.00214787
0.00220625
0.00224131
0.0021353
0.00152388
0.00219964
0.00222821
0.00206368
0.00224002
0.00163816
0.00151138
-0.00400681
0.00190335
0.00193911
0.00222998
0.00171507
0.00172803
0.00198193
0.00158111
0.00216211
0.00210158
0.000594276
0.00212627
-0.000464214
0.0018806
0.00224855
0.00223319
0.00224997
-0.00540146
0.00222309
0.00191455
0.00224021
-0.0042348
0.00223812
0.00224126
0.00224844
-0.00183218
0.00195612
0.00213775
0.00215053
0.00205436
0.000385754
0.0022063
0.00201758
0.00177987
-0.00353179
-0.0001367
0.00203683
0.00222715
0.0021528
0.0021502
0.00194825
0.00200393
0.00177852
0.00224935
0.00201869
0.00180749
0.00224134
0.00219234
0.00202681
0.00211334
0.00194159
0.00199821
0.00221404
0.00181922
0.00184908
0.00183282
0.00189131
-0.00495604
-0.00234721
0.00181675
0.00224791
0.00224555
0.00224473
0.00106953
-0.00153865
0.00221679
0.00220733
0.00224741
0.00191447
0.00191526
0.00204944
0.0019223
0.00220186
0.00108918
0.00170053
3.66967e-05
0.00212604
0.00203633
0.00220211
0.0020508
0.00216959
0.00184522
0.00215432
0.00224425
0.00177797
0.00127825
0.00198596
0.00220372
0.00172981
0.00219143
0.00222317
0.00193668
0.00225001
0.00224685
0.00203005
0.0019547
0.00207989
0.0017997
0.00204521
0.00225036
0.00186398
0.00222927
0.00162503
0.00189296
0.00183698
0.0019936
0.00166487
0.00211534
0.00223962
0.0022485
0.00220689
0.0017793
0.00219365
0.00214745
0.00154768
0.0013348
-0.00640457
0.0019124
0.00208162
0.00216693
0.00214425
-0.00644013
0.00194248
0.00164011
0.0019815
0.00220372
-2.16359e-06
0.000264325
0.00221147
0.00174888
0.00208171
0.00216939
0.00223239
0.0019475
0.00223865
0.00166736
0.00222118
0.00216904
0.00203234
-0.00377547
-0.00376063
0.00210615
0.00224738
0.00018799
0.00177901
0.0021426
0.00203968
0.00221602
-0.00676815
0.00222317
0.00222965
0.00179797
0.00192633
0.002025
0.00169864
0.00213118
-0.000617857
0.00224412
0.00193267
-0.000114396
-0.00562459
0.00195008
0.00224587
0.00144198
0.00183836
-0.00639904
0.00188909
0.00190699
-0.00530139
0.00224253
0.00224289
0.0022441
0.00221746
0.00203481
0.00199635
-0.000267175
0.00224796
0.00202812
0.00207058
0.00162379
0.00188329
0.00212304
0.00222902
0.00224485
0.00222771
0.00221308
0.0019135
0.00224625
0.0018026
0.00224738
0.00199197
0.00201574
0.00224282
-0.00502479
0.00204751
0.00219709
0.00199304
0.00195853
0.00223636
0.00224313
0.00223264
0.00215022
0.00224444
0.00207012
0.00221851
0.00200443
0.00224891
-0.00259326
0.00224728
0.00170961
0.00222787
0.00221382
0.00195145
0.00220504
0.00209736
0.00224125
0.00225058
0.0020213
0.00212925
0.00188205
0.00213791
0.00222567
0.00151195
0.00184134
0.00191033
0.00214053
0.00166357
0.00217987
0.00219993
0.0022343
0.00224458
0.00186029
0.0017477
0.00221429
0.00218571
0.00181953
0.00224727
0.00190712
0.00224845
0.00206736
0.00224942
0.00169945
0.00224248
0.0018947
0.00216569
0.00223496
0.00163958
0.00186644
-0.00335524
-0.00573824
0.00198639
-0.000683457
0.00202172
0.00200826
0.00209821
0.00189487
0.0022508
0.00220573
0.00172041
0.00108526
0.00209469
0.00204355
0.000898733
0.00213528
0.00197455
0.00178348
0.00222748
0.00204598
0.00206961
0.00201271
0.00194064
0.00224764
0.00218815
0.00200535
0.00195196
-0.0067041
0.00188815
0.00187111
0.00197326
0.002113
0.00204879
0.00222985
0.00205417
0.0018179
0.00220765
0.00208237
0.00176051
0.00220423
0.002249
0.00197438
0.00196816
0.00222324
0.00225054
0.00188111
0.00194728
0.00219005
0.00205397
-0.00436735
0.00214396
0.00224007
0.00224975
0.00203894
0.00202597
0.00172621
0.00225013
0.00213832
0.00184881
0.00223541
0.00212495
0.00194816
0.0017691
0.00223554
0.00219127
0.00205674
0.00222605
0.00224534
0.00125726
0.00165603
0.00222811
0.00204412
0.00224598
0.00222161
0.0021638
0.00223054
0.00224153
-0.00350548
0.00220293
0.00194399
0.00162987
0.00186184
0.00191185
0.00224862
0.000191484
0.00222389
0.00225061
0.00201684
-0.000625894
0.00184677
0.00213213
0.00161421
-0.00647343
0.0021074
0.00224646
0.00224442
0.00198048
0.00204239
0.000683993
-0.00521881
0.0019906
0.00224791
0.00223277
0.00175557
0.00217686
0.00213584
0.00222809
0.00205521
0.00200684
0.00216237
0.00222343
0.00201975
0.0020318
0.00125219
0.00222772
0.0019287
0.00201649
0.00220683
0.00221127
0.00219079
0.00212101
0.000505823
0.00205246
-0.00132907
0.00193377
0.000376102
0.00172359
0.00174296
0.00225062
0.0020382
-0.000163745
0.00196392
0.0022169
0.0018332
0.00155731
0.00219874
0.00198954
0.00224581
0.00224138
0.0018921
0.00206114
0.00169862
0.00203789
0.00187941
0.00223233
0.00223763
0.00221998
0.00219728
0.00183391
0.00211829
0.00224649
6.97664e-05
0.00224156
0.000161196
-0.00576642
0.0020378
0.00223664
-0.00477852
0.00222842
0.00189145
0.00222894
0.0019404
0.00201593
0.0019231
0.00224665
0.00202752
0.00202236
0.00176311
0.00221872
0.00193111
0.00224913
0.00220308
0.0017537
0.00191741
-0.00102114
0.00209291
0.00159695
0.00224693
0.00170613
0.0020161
0.0022477
0.00182878
0.00193668
-0.00590364
0.00194764
0.00222551
0.0019971
0.00177084
0.00160763
0.00220845
0.00176582
0.00224514
0.00224834
0.00225066
0.00222621
0.00224951
0.00173156
-0.00250762
0.00194438
0.00224865
0.00206031
0.00179514
-0.00245556
0.00199301
0.00198689
-0.00374026
0.0022468
0.00223585
0.00222086
0.00183629
0.000377259
0.00221206
0.00201108
0.00224283
0.00224668
-0.00375233
0.00224718
0.00209312
0.00224973
0.00181706
0.00223887
0.0016791
0.00180574
0.00223711
0.00195826
3.46278e-05
0.00222422
0.00223306
0.00209116
0.00193134
0.00183739
-0.00284565
0.00190095
0.00223802
0.0022499
0.0015071
-0.0033704
0.00223947
0.00202977
-0.00137731
0.0022033
0.00180119
0.000445856
0.0017646
0.00181517
0.00183569
0.00223962
0.00195069
0.00219201
0.00186709
0.00223461
0.00219177
0.00214463
0.00177311
0.00223124
0.00175395
0.00211179
0.000665555
0.00195727
0.00158316
0.00180774
-0.00246372
0.00224613
0.00225035
0.00178129
0.00211915
0.00188778
0.00208434
-5.0661e-06
0.00224601
0.00213711
0.0022413
0.00223852
0.00185139
-0.00307493
0.00217819
0.00197642
0.00205629
0.00194118
0.00222079
0.00204256
0.00223501
0.00182613
0.00179052
0.00205999
0.002223
0.00198188
-0.00660507
0.00191037
0.00224814
0.0022026
0.00220263
0.00203183
0.0020919
0.00208372
0.00219913
0.0021978
0.0017688
0.00224893
0.00224004
0.00198749
0.00224822
0.00224506
0.0018399
0.00186266
0.00204557
0.00191434
0.00178274
0.0020856
0.00185694
0.00213967
0.00188908
0.00217191
0.00223188
0.00213156
0.00208275
0.00152946
0.00209126
0.00213214
-0.000362097
0.00202217
0.00208306
0.00225079
0.0020412
-9.86184e-05
0.00162787
0.00173048
0.00222106
0.00173535
0.00224615
0.00211423
0.00196798
0.00189935
0.00200949
0.00214336
0.00190238
0.00219276
0.00192911
0.00224296
0.0018672
0.00163648
0.00219827
0.00225035
0.0022288
0.00180982
-0.003901
0.00222096
0.00143016
0.00192201
0.00219547
-0.00650284
0.00219959
-0.00381791
0.00186372
0.00224017
0.00223662
0.00225066
0.00198341
0.00222922
0.0018871
0.0015097
0.00198441
0.00224817
0.00178302
0.00215034
0.00164608
0.0021567
0.00214739
0.00206633
0.00201021
0.00204079
0.00208343
0.00189097
0.00224941
0.00221955
0.00191433
0.00193268
0.00221853
0.00218885
0.00199934
0.00221682
0.00183424
0.00191526
0.00196946
0.00195095
0.00215146
0.00134739
0.00224665
0.00223935
0.00176298
3.55084e-05
0.00224876
0.00178782
0.0021666
0.00218297
0.00198823
0.00224677
0.00206605
0.0022249
0.0021991
0.00189291
0.00196928
0.00224996
0.00158649
0.00187765
0.00177255
0.00202238
0.00224699
0.00185298
0.00224051
0.00205687
-0.00473834
-0.00638042
-0.00552279
0.00214927
0.00224671
0.00212208
0.00223204
0.00210136
9.41947e-05
0.00219463
0.00184034
0.00225067
0.00221672
-0.00453881
0.0019475
0.00182006
0.00194057
0.00209528
0.00198043
0.000171884
0.00194487
0.00194416
0.00221241
0.00179768
0.00107471
0.00199668
-0.00215803
0.00193613
0.00182185
0.00193943
0.00195525
-0.00564971
0.00224953
0.00220699
0.00210267
0.00193756
0.00188183
0.00215261
0.00149568
0.00218645
0.00196159
0.00188793
0.00181785
0.00187756
0.001838
0.00138301
0.00222047
0.00210943
0.001001
0.00201176
0.00200498
0.00215609
0.00180822
0.0022508
0.00214126
0.00215854
0.00224838
0.0018931
0.00221845
0.00186101
0.00205579
0.0017643
-0.000437795
0.00198261
0.00170834
0.00225062
0.00169778
0.00218786
0.0020404
0.00224726
0.00166993
0.000879006
0.00223954
0.00175417
0.00224648
0.00219828
0.000113436
0.00155409
0.00166058
0.00224445
0.00122067
0.00225013
0.0020958
0.00177985
0.0015469
0.00224681
0.000984526
0.00200914
0.00224854
-0.00464691
0.00148617
0.00208767
0.00188932
0.00196648
0.00210592
0.00205602
0.0020324
0.00207524
0.00222802
0.00221966
0.00213936
0.00172689
0.00224585
0.00208542
0.00213414
-0.00245485
0.00183003
0.00200336
0.0019216
0.0022248
0.00184365
0.00225063
0.00195916
0.00189593
0.00201539
0.00221589
0.00184975
0.00221924
0.00166782
0.00220384
0.00223725
0.0020442
0.00202779
0.00189737
0.00195104
0.00222077
0.00224935
0.00221458
0.00215207
0.00180948
0.00141761
0.00223993
0.0018866
0.00220664
0.00201765
0.00223246
0.00190167
0.00223378
0.00216586
0.00123337
0.0019656
0.00180843
0.00218067
0.00222154
0.00205521
-0.000316054
0.00215609
0.00224558
0.0016417
0.00187755
0.00169605
0.00225051
0.00189317
0.00207623
0.00220639
0.00189545
0.00185605
0.00163399
0.0019153
-0.00292842
0.00220578
0.00131786
0.00214609
0.00218519
0.00219574
0.0018416
0.00222756
0.00224495
0.00222318
0.00194975
0.0022407
0.0019776
0.00215885
0.00195361
0.00209254
0.00171099
0.00202341
0.0020829
0.000733718
0.00206961
0.00220217
0.0022209
8.12318e-05
0.00224336
0.00202041
0.00175078
-0.000480809
0.00186454
0.0015048
0.00189823
0.00199911
0.00203085
0.00185725
0.00225063
0.0019713
0.000515244
0.00189097
0.00177632
0.0019918
0.00219794
0.00224538
0.00200363
0.000114481
0.00144684
0.00185976
0.00224289
0.00224533
0.00202914
0.00179747
0.00224693
0.00163205
0.00191445
0.0022404
0.00220966
0.00195009
0.0017726
0.00224791
0.0022362
0.000859373
0.00175774
0.00220643
0.00223711
0.00205642
0.00199773
0.00193906
0.00224538
0.00199951
0.00213185
-0.00255982
-0.00540957
-0.00267552
0.00208153
0.00212123
0.00186913
0.00182954
0.00222993
0.00178981
0.00188231
0.00181069
0.00184521
0.00224815
0.00221056
0.00200088
0.00190738
0.00209723
0.00212059
0.00204449
0.00208687
0.00196397
0.00223604
0.00180491
0.00171877
0.00186729
0.0022402
0.00100991
0.00199586
0.00220768
0.00223143
0.00198353
0.00221605
-0.00560677
0.00173386
0.00205354
0.00157513
0.00193622
0.00205399
0.00224193
0.00172968
0.00224214
0.00222014
0.00224872
7.1658e-06
0.00206903
0.00223581
0.00210921
-0.000178864
0.00192516
0.00221936
0.00209786
0.00192687
0.00224678
0.00183902
0.0022429
0.00193499
0.00195907
-0.00027939
0.00174875
-0.00310111
0.00202145
0.00217764
0.00219897
0.0019258
0.0017559
0.00198149
-0.00312699
0.00212506
0.00224469
0.00191822
0.00220047
0.00213701
0.00189757
0.00219109
0.0022326
0.00198082
0.00180421
0.00215725
-0.000815461
0.00202426
0.00223598
0.00224682
0.0022448
0.0020378
0.00190521
0.00224217
0.00205905
0.00225016
0.00177504
0.00224862
0.00199111
0.00224723
0.00213031
0.00225028
0.00185691
0.00213915
0.000230164
0.00196614
0.00187569
0.00189851
0.00191967
0.00204394
-0.00418484
0.00204487
0.00197289
-0.00450669
0.00221551
-0.00328043
0.00194922
0.00198005
0.00198246
0.00210442
0.00221528
0.00202792
0.0018946
0.00196918
0.00175711
0.0021973
0.0011264
0.00110474
0.00219273
0.00190158
0.00197174
0.00201061
0.00161749
0.00177943
0.00159707
0.0022504
0.00218821
0.00205168
0.00180848
0.00194057
0.000314077
7.1294e-05
0.00214949
0.00224975
4.58763e-05
0.00224518
0.00186347
0.00196647
0.00184938
0.00216416
0.0018764
0.00204728
0.00194667
0.00174533
0.00205738
0.00187669
0.00221491
0.00156639
0.00154077
0.00207979
0.00169147
-4.13168e-06
0.00195746
0.00221573
0.00199546
0.00202424
0.0016923
0.00205121
0.0022005
0.00202055
0.00182456
0.00223572
0.00211545
0.00165608
-0.00416763
0.00185228
0.00199929
0.00197512
0.00180262
0.00196303
0.00211964
0.00220933
0.00201953
0.00207785
0.00199572
0.0019729
0.00186714
0.00220038
0.00224022
-0.00440757
0.00114835
-0.000716544
-0.00220795
0.00138241
0.000736176
0.0017801
0.00198789
0.00219132
0.00204102
0.00205014
0.00192468
0.0017925
0.00215227
0.00219724
0.00204488
0.00144355
0.00200621
0.00157398
0.00224236
0.00223236
0.00209127
0.00195017
0.00224428
0.00224262
0.00220866
0.00194741
0.00192366
0.00207253
0.00224794
0.00193646
0.00211177
0.00187219
0.0020669
0.000482447
0.00199701
0.00224611
0.00224956
0.00201699
0.00205416
0.000684463
0.00186719
0.00190785
0.00224106
0.00211763
0.00169642
0.00196837
0.00202729
0.0020632
0.00214355
0.00224122
-0.00493216
-0.000620058
0.00184465
-5.91171e-05
0.00221664
0.00204906
0.00194099
0.00202786
0.00217723
0.00202858
0.00183356
0.00224282
0.00223452
0.00211656
-0.00297619
0.00206554
0.0019269
0.00197092
0.00211856
0.00222623
0.00203518
0.00133016
0.000552268
0.00218894
0.00214588
0.00224721
0.00186096
0.0019398
0.00192741
-0.00457901
0.00221957
0.0022424
0.00218763
0.00190892
-0.00129108
0.00195671
-0.000229886
0.00222528
0.00224467
0.00222546
0.0022241
-0.00328235
0.0015836
0.00213368
0.00180082
0.00137663
0.00188603
0.00223648
0.00200088
0.00188897
0.00223442
0.00183057
0.00220714
0.00222934
0.00224705
0.00181631
0.00163228
-6.98804e-05
0.00195025
0.00221813
0.002024
0.00175581
0.00208581
0.00221715
0.00224879
0.00129055
0.00191993
0.00217295
0.00206898
0.00179245
0.0021735
-0.000233353
0.00213775
0.00187741
0.00224637
0.0019929
0.00200828
0.00225002
0.0022169
0.00224656
0.0022481
0.00110421
0.00190609
0.00161558
0.000538662
0.00212803
0.00219007
-0.00377751
0.002093
0.00171866
0.0022469
0.000369313
0.00224999
0.00190736
0.00220475
0.00192591
0.00224917
0.00224959
0.00223893
0.00141351
0.00225059
0.00177927
0.000445294
0.00215264
0.00200582
0.00225027
0.00197046
0.00189697
0.00223233
0.00169333
-0.000222737
0.00221092
0.00225063
0.00211706
0.00208847
0.00182801
0.00161118
0.0017518
0.00166234
0.00215227
0.00173688
0.00222249
-0.000553543
0.00219844
-0.00160652
0.00225044
0.00174644
0.00220064
0.00186374
-0.00450688
-0.00448786
0.00223458
0.00201463
0.00189175
0.00225061
0.00200175
0.00223012
0.00204703
0.00207574
0.00209192
0.00222421
0.00222765
0.00223527
0.00213285
0.00196616
0.00202506
0.00179837
0.00224354
0.00202477
0.00224991
0.00209873
0.00224868
0.00193146
-0.000362008
0.002243
-0.00593247
0.00210673
0.00189008
0.00198521
0.00223382
0.0021182
0.0016142
0.00225043
0.0022176
0.00225047
0.00224542
0.00204317
-0.00592302
0.00213763
0.00188427
0.0018944
0.00201268
0.00224875
0.00194729
-0.000212049
0.00189718
0.00209308
0.00185815
0.00205629
0.00175686
0.0021372
0.00223489
0.00222522
0.00198213
0.00222267
0.00221037
0.0018996
0.0022493
0.0018655
0.00222998
-0.00128328
0.00200118
0.00193641
0.00201314
0.00222699
0.00195903
0.00200999
0.00199106
0.00223629
0.00222387
0.00204727
0.00209831
0.00193336
0.000813861
-0.00578841
0.00212469
0.00206594
0.00223437
0.00203283
-0.00505905
0.00198999
0.00225029
0.00200818
0.00224572
0.00181217
0.00222086
0.00211207
0.00224696
0.00224558
0.00168468
0.00217973
0.00221059
0.00221746
0.00224697
0.00218272
0.00044705
0.00192506
0.00219652
0.0021993
0.00210481
0.0022486
0.00215471
0.00222104
-0.00100203
0.00225037
0.000737163
0.00219653
0.00193578
0.00202759
0.00220697
0.00204853
0.00224877
-0.00371319
0.00199976
0.00224998
0.00184053
0.00200488
0.00224948
0.00193765
0.00210263
0.00199708
0.000542852
0.00201018
0.00196952
0.00165914
0.00222564
-0.00473564
0.00223949
0.00224993
-0.004336
0.00201103
0.00218828
0.00201902
0.00179891
0.00204908
0.00175788
0.00224839
0.00223373
0.00211271
0.00194587
0.00217941
0.00213213
-0.00425326
0.00224082
0.00196528
0.00186323
0.00209787
0.00220792
0.00187827
-0.003754
-0.0041646
0.00215805
0.00224993
0.00201735
-1.21774e-05
0.00213072
0.00224855
0.00197652
0.00217175
0.0021001
0.0022161
0.00221969
0.00224286
0.00180698
0.00193509
0.00201202
0.00170659
-0.00126569
0.00224436
0.00198641
0.00199351
0.00224692
0.00224029
0.00221492
0.00187049
0.0022275
0.00207572
0.00192535
0.00213046
0.00215653
0.00206407
0.00210443
0.00224096
0.00164238
0.00172008
0.00224054
0.00225019
0.00165623
0.00214025
0.00161159
0.00224868
0.00221543
0.00223869
0.00187903
0.00189596
0.000557178
0.00224763
0.00217535
0.00220365
0.00224075
0.00224884
0.00204165
0.00204104
0.000634083
0.000770343
0.00224209
0.00218922
0.00211516
0.00222675
0.000797543
0.0022073
0.00146498
0.00206254
0.00193563
0.00219056
0.00170727
0.00224721
0.00223615
-0.00607898
0.00179421
-0.00194999
0.00225082
0.00221138
0.00206043
0.0022488
0.0019518
0.00224087
0.00219157
0.00175092
-6.81324e-05
0.00220187
0.00221147
0.00219913
0.00224729
0.00224906
0.00222391
0.00204799
0.00197402
0.00179101
0.00181212
0.00224714
-0.00434344
-0.00562334
-0.00460874
0.00205699
0.00221424
0.00189034
-0.00204969
0.00205836
0.00224739
0.00220735
0.000259206
0.00224912
0.00181655
0.00221926
-0.000150076
0.00222552
-0.00407313
0.00209577
0.00224461
0.00209779
0.00204456
0.00224144
0.00209283
0.00214114
0.0020371
0.00217624
0.00217133
0.0021198
0.000852909
0.00180163
0.0022351
0.00167399
0.00224988
0.00191259
0.00222043
0.00223664
0.00201861
0.00154102
0.00198483
0.00182982
0.00189595
0.00224603
0.00146595
0.00223697
0.000729533
0.00189532
0.00223053
0.00189362
0.00202236
0.00224222
0.00224654
0.00199931
-0.00429104
0.0021028
0.00200154
0.00212494
0.00187297
0.00191561
0.0019183
0.00178432
0.00224376
0.00221837
0.00212015
0.00174967
0.00187532
0.00202302
0.00198866
0.00204862
0.00198657
0.00188085
0.00224255
0.00204408
0.00129293
0.00224694
-0.00138214
0.00222924
0.0019911
0.00176282
0.00205154
0.001912
0.00224333
-0.000436037
0.00184578
0.00163831
0.00197223
-0.00699307
0.00224695
0.00224261
0.00202763
0.00223983
0.00224975
0.00168037
-0.000690662
0.00193959
0.00147261
0.00202632
-0.00606885
0.00222209
0.00214523
-0.0059133
-0.0014805
0.00203351
-0.000307808
0.00186519
0.00210248
0.00196391
0.00159939
0.00214442
0.00179501
0.00187327
0.00164044
0.00193545
0.000362213
0.00213197
-0.00275742
0.00203147
0.00224843
0.00185645
0.00198278
0.0016618
0.00221807
0.00223685
-7.01703e-05
0.00224937
0.00185032
0.00179708
0.00225068
0.000849293
0.00222938
0.00224566
0.00191546
0.00224736
0.00191552
0.00224515
0.00212373
0.00210504
0.00224952
0.00195902
0.00209026
0.00223052
0.00221832
0.0019556
0.00178651
0.00225052
-0.0060936
0.00223009
0.00218733
0.00114563
0.00185612
0.0022419
-0.00559338
0.0022409
0.00212222
0.00211918
0.00215539
-0.0053298
0.00202533
-0.00446056
0.00199783
0.0018307
0.000658508
0.00216932
0.00177248
0.00201678
0.00190466
0.00224644
0.00224763
0.00184043
0.00205277
0.00211674
0.00188861
0.00209864
0.0020937
0.00224644
0.00211411
-0.00240722
0.00208517
0.00210748
0.00224717
-0.00135615
0.00200113
0.000170943
0.00199365
0.0022121
0.00192806
0.0022471
0.00220183
0.00220933
0.00154746
0.00182576
0.00188856
0.0022334
0.00219311
0.00158838
0.00222452
0.002087
-0.00415498
-0.00270437
0.0020968
0.00199809
0.00219397
0.00222594
0.00168725
0.00224905
0.00187187
0.00191649
0.00222395
0.0022232
0.00184901
0.00192401
0.00222158
0.00198785
0.0022142
0.00195416
0.00224084
0.00222356
0.00192712
0.00213942
0.00224876
0.00194288
0.00224948
0.00192812
-0.00598693
-0.000440365
0.00195635
0.00222843
0.00224298
0.00192898
0.00202542
0.00193481
0.00223323
-0.000278435
0.00204206
0.0019764
0.00221275
0.00218001
0.00222777
0.00224599
0.00204789
0.00190209
-0.00366725
0.00224616
-0.00164333
0.00224683
0.00210113
0.00223868
0.00213792
0.00225037
0.00201786
0.00201199
0.00224532
0.00199174
0.00224851
0.00199194
0.00145676
0.00220672
0.0022506
0.00193695
0.00208946
0.00224803
0.00193054
-0.00691164
-0.000549248
0.00220147
0.00198857
-0.00528449
0.00218417
0.00198545
0.00184953
0.00202437
0.00223064
0.00200068
0.00209547
-0.000136428
0.0014879
0.00197978
0.00184342
0.00167497
0.00180496
0.00166488
0.000542831
-0.00518302
0.00224779
0.00197325
0.00205516
0.00225045
0.0021623
0.00192177
0.0015037
0.00223652
0.00221836
0.00225052
0.00199123
0.00224189
0.00147339
0.0021906
0.00221727
0.00222862
0.00220556
-0.00615728
0.00194023
0.00189756
0.00222444
0.00220812
0.00202176
0.00219656
-0.00437796
0.00210394
0.00173554
0.00221316
-0.00113701
0.00187855
0.00219529
0.00224692
0.00224826
0.00223379
0.00189585
0.00192201
0.00198527
0.00179529
0.00189916
0.00224628
0.00224246
0.0022424
0.00195349
0.00219844
0.0021813
9.93789e-05
0.00215449
0.00179977
0.0019827
0.00217189
0.00204383
0.00224269
0.00222195
0.00214252
0.00140946
-0.0044663
0.0019408
0.00181916
0.00175622
0.00183699
0.00200518
0.00221972
0.00223949
0.00186163
0.00177611
-0.00280096
0.00202914
0.00223715
-0.00225864
0.00220314
0.00167422
0.00218125
0.00169795
0.00221542
0.00171775
0.00224796
0.00224268
0.00202757
0.00182951
-0.00171792
0.00198439
0.00189231
0.00220326
0.00199908
0.00219919
0.00128246
0.000602251
0.00205844
0.00222559
0.00178436
0.0022203
0.00148341
0.0017824
0.0016938
0.00221724
-0.00242837
0.00177884
0.00194503
0.002237
0.00196037
0.00177628
0.00160101
0.00224742
0.00224448
0.00224878
0.00213731
0.00200037
0.00224646
0.00223481
0.00199156
0.00217418
0.00115297
0.00224869
0.002101
0.0019136
0.00192798
0.00210025
0.00217925
0.00214653
0.00211162
0.00224463
0.00187743
0.00222734
0.00168721
0.0022479
0.00210283
0.00223511
0.00222445
0.00200722
-0.000493481
0.00219394
0.0022315
0.00210482
0.00220451
-0.00144254
0.00206444
0.00190477
0.0018691
0.00176435
0.00181271
0.00205359
0.00218612
0.0017495
0.00176084
0.00224149
0.0021861
0.00224496
0.00224739
0.00206274
0.00224461
0.00191838
0.00224634
0.00195241
0.00215413
0.00223712
0.00186141
-0.00070444
0.00223678
0.00180359
0.00171895
0.0020087
0.00223601
0.00181884
0.00220908
0.00117862
0.00219269
0.0020072
0.00199426
0.00198771
0.000567416
0.0020319
0.000517249
0.00190557
0.000347206
0.00152771
0.00221587
0.00214793
0.00199297
0.00225078
-4.86013e-05
0.00180364
0.00220641
4.90574e-05
0.00203444
0.00186141
9.48644e-05
0.00219732
0.00209122
0.00215683
0.00174672
0.0019498
0.00224682
0.00209629
0.0020283
0.00186008
0.00200439
0.00177958
0.0021031
0.00171191
0.00182227
0.00224724
0.00164901
0.000509221
0.00224754
0.00203729
0.00215274
0.00223619
0.00204425
0.00137229
0.00136452
0.00199636
0.00200083
-0.00615383
0.00216366
0.00171017
-0.00437654
0.00223142
0.00172749
0.00210438
0.00182669
0.00193468
0.00223599
0.00224248
0.00194036
0.000287675
0.0022414
0.0021687
0.00212791
0.00186555
0.00129579
0.000596219
0.00224873
0.00221759
0.00176076
0.00194399
0.00180862
0.00187371
0.00219197
0.00137277
-0.00330121
0.0022488
0.00201249
0.00224758
0.00182147
0.00186644
0.00222779
0.00199246
0.00190633
0.00224119
0.00200032
0.00204421
0.000467019
-0.00366379
0.00221493
0.00224815
0.00224525
0.000159559
0.00195988
0.00223935
0.00202806
0.00189843
0.00214964
0.000513543
0.00175406
0.00224413
0.00195597
-0.00584892
0.00215212
0.00224568
0.00225084
0.00201855
0.00180604
0.00210647
0.0017476
0.00220425
0.00183899
0.00164947
0.00221289
0.00162133
0.00207592
0.00147811
0.00224723
0.00208074
0.00221989
0.00224579
-0.00355274
0.00160858
0.00224514
0.000486768
0.00194897
0.00188766
-0.00182839
0.00172802
0.0022476
0.00212189
0.00194836
0.00224749
-0.00286788
0.00196307
0.00223676
0.00203826
-0.0032325
0.0020137
0.00224721
0.0020498
0.00183337
0.00217751
0.00190184
0.00215879
0.0022508
0.00223515
0.00225037
0.00221381
-0.00320445
0.00211106
0.00188799
0.00221175
0.00181879
0.00201299
0.000753151
0.00204042
0.0022451
0.00222924
0.00214035
0.00225081
0.00190058
0.00146292
0.00189105
0.00224813
0.00224436
0.00223439
0.00186786
0.00216996
0.00115584
0.00198366
0.00210193
0.00194335
0.00224956
0.00170494
0.00198687
0.00213193
0.00220268
0.00194099
0.00182923
-0.00550217
0.00193215
0.00188195
0.00219767
-0.00478782
0.000290487
0.00211435
0.00211971
0.00183916
0.00210971
0.00224046
0.0018272
0.00204514
0.00224284
0.00194344
0.00193891
0.00198282
0.00195964
0.00224223
0.0016638
0.00223108
0.00186488
0.0022301
-0.00672183
0.00206989
0.00223408
0.00206719
0.00224493
0.000933581
0.0019469
0.00183885
0.00222668
0.00192872
0.0020253
0.00173461
0.00178795
0.00196935
0.00218668
0.00170214
0.00224268
0.00189787
0.00199992
0.00224553
0.00223977
0.00224932
0.00183061
0.00208508
0.00222432
0.00205443
0.00201259
0.00219759
0.00194796
-0.0033824
0.00214562
0.000399738
0.000129241
0.00200337
0.00167845
0.001943
0.00220812
-0.00610074
0.00213615
0.00221492
0.00184655
0.00224732
0.00189981
0.00211302
0.000663198
0.00208417
0.00223255
0.00193632
0.00207508
0.00221379
-0.00536327
0.0022474
0.00214092
0.00146998
0.00225052
0.00220648
0.00196938
0.00137168
0.0022453
0.00181023
0.00210183
0.00225017
0.00207509
0.00225069
0.00180762
0.00167379
0.00170578
0.00189692
0.00185284
0.00224961
0.00225029
0.00188758
0.00220955
0.00224035
0.00222387
0.00165846
0.00203229
0.00183055
0.00194936
0.00211526
0.00209135
0.00187109
0.00199988
0.000945214
-0.001384
0.00223321
0.000910023
0.00177148
-0.00447507
0.00173566
0.00188793
0.00217136
0.00177611
0.00178821
0.00171912
0.00195129
0.00221803
0.0022171
0.00195649
0.00224987
-0.000138562
0.00154652
0.00201485
0.00212373
0.00224928
0.00194544
0.00180419
0.00224402
0.00219971
0.00216922
0.00216643
0.00218836
0.00216179
0.0022425
0.00214348
0.00194816
0.00225079
0.00208831
0.00224405
0.00190067
0.00210192
0.0021783
0.00207491
0.00223238
0.00174629
0.00197454
0.00224073
0.00168216
0.00189329
0.00222547
0.0022288
0.00224936
0.00224224
0.00204847
0.00224139
0.00196102
0.00224494
0.00224626
0.0022239
0.00222319
0.00222177
0.00209525
0.00180336
0.00181098
0.00182085
0.00224457
0.00173899
7.08022e-05
-0.00303209
0.00112297
0.00208509
0.00218513
0.00200018
0.00197371
0.00224796
0.00204846
0.00222459
0.0018899
0.00146852
0.00224496
0.0022461
0.00219287
0.00204359
0.00192065
0.00209152
0.00209348
0.00224626
0.00215923
-0.00169407
0.00223518
0.00224617
0.000924797
0.00221076
0.00189856
0.00205405
0.00190781
0.00216863
0.00224882
0.00222348
0.00195457
0.00197403
0.00184191
0.00224586
0.00200775
0.0020373
0.00224485
0.00218886
0.00210974
0.00224406
0.00185331
0.00175073
-0.00370081
0.00200395
0.00207718
0.00197945
0.00168559
0.00209014
-0.00209949
0.00200102
0.00193516
0.00197852
0.00224602
0.0022428
0.00176686
0.00179566
0.00200865
-0.00393353
0.00133803
0.00225055
0.00218844
0.00214333
0.00224994
0.00180297
0.00214721
0.00181534
0.00201837
0.00186898
0.00219524
0.00202899
0.002208
0.00215621
0.00201993
0.0019418
0.00216986
0.0020856
0.00224207
0.00166177
0.00202109
0.00224317
0.00217957
0.00166042
0.0017362
0.0019058
0.00193394
0.00201297
-0.000991481
0.00224837
0.00224182
0.00189724
0.00224979
0.00222013
0.00224714
0.00224044
0.0019813
0.00217793
0.00192725
-0.000510439
0.00156875
0.00189448
0.00194293
0.0020142
0.00172348
0.00175849
-0.00474719
0.00221719
0.00167188
0.00192338
0.00224688
0.00223524
0.00185613
0.000867205
0.0014752
0.00224875
0.00223461
0.00224773
0.00207054
0.00222509
0.00221716
0.00194218
0.00202763
0.00209798
0.00220684
0.000585842
0.00221043
0.00218435
-0.00069006
0.00199309
0.00185024
0.00223184
0.00211616
0.00224183
0.00206665
-0.00556738
0.00184667
0.00225019
0.00196654
0.0019661
0.00197353
0.000833806
-0.000829885
0.00222271
0.00216111
0.00217966
0.00222752
0.00051557
0.00206412
0.00191067
0.00177977
0.00222105
-0.00134378
0.00169203
0.00222199
0.00223822
0.00222071
0.00188645
0.00196534
0.00191591
0.00216451
0.00216837
0.00220098
0.00199041
0.00223929
0.00180216
0.0020595
0.00221438
0.00222905
0.00220692
0.00190737
0.0020156
0.00223462
0.00181531
0.00222912
0.00150435
0.00224138
0.00193227
0.00212797
0.00202957
0.00224625
0.00204056
0.00200729
0.00218118
0.00210021
-0.00138707
0.00194309
0.00224781
0.0020418
-0.00682681
0.00222429
0.0018481
0.0016812
0.0019354
0.00203088
-0.00173497
0.00187963
0.00219296
-0.000321237
0.00191535
0.00212747
0.00190031
0.00193931
0.00207974
0.00218895
-0.00244999
0.00219152
0.00219833
0.00218442
0.00224823
0.00223577
0.00206403
0.00220472
0.00194592
0.00216029
0.00204673
0.00196571
0.00208452
0.00169675
0.00221314
0.00185839
0.0017151
0.00186382
0.00179528
0.00191607
0.00213953
0.00219684
0.00190661
0.000110428
-0.00313249
0.00181075
0.00161519
0.00199856
0.00224609
-0.00482844
0.00218333
0.00153498
0.00175208
0.00223786
0.00223931
0.00182166
0.00212956
0.00188509
0.00207385
0.00200727
0.00225032
0.00223604
-0.00428242
0.00223944
0.00223436
0.00190593
0.00195552
0.00207431
0.00212078
0.00187489
0.00224676
0.00182613
0.00189798
0.00224279
0.00225074
0.00192202
0.00224896
0.00207355
0.00191045
0.00202702
0.0022425
0.00224168
0.00186792
0.00196833
0.0022215
0.00216638
0.00205568
0.00195585
0.00225046
0.00204174
0.00208863
0.0021332
0.00187332
0.00218073
0.00187786
0.00192713
0.00181496
0.00199893
0.00220684
0.00224479
0.00126577
0.00221267
0.00224844
0.0021837
0.00190243
0.00170222
0.00194793
0.00194809
0.0020319
-0.00325188
0.00210601
0.00183357
0.00224024
0.00186565
-0.000349389
0.00168305
0.00223728
0.00191055
0.00207751
0.0018354
0.00196958
0.00223392
0.000622518
0.00223298
0.00210421
0.00224142
0.0018018
0.00192146
0.00195024
0.00217023
0.00139602
0.00164049
0.00196456
0.00199178
0.00214234
0.00224665
0.00223572
0.00214689
0.00191332
0.00185954
0.00218943
0.000230854
0.00224369
-0.00557977
0.00210548
0.00222392
0.00219351
-6.57118e-05
0.00206968
0.00174676
0.00224529
0.00207471
0.00206395
0.00214513
0.00195087
-0.00467262
-0.000247421
0.00223977
0.00206976
0.00224374
0.00181854
0.0022478
0.0017268
0.00206101
0.00203023
0.00189871
0.00179217
0.0021676
0.00219142
0.000327274
0.00220638
0.00224859
0.00170502
0.00166262
0.00191973
0.00178286
0.00213838
0.00224252
0.00224744
0.00208143
0.00186935
0.00187724
0.00224657
0.00205192
0.00224184
0.00172393
-0.00275588
0.00212263
0.00220913
0.00204421
0.00194045
0.00188386
0.00213654
0.00169008
0.0022291
0.00193636
0.0014413
0.00174047
0.00199243
-0.000381113
-0.00329752
0.00196553
0.00223836
0.00196415
0.00214539
0.00189159
0.0022411
0.00201276
0.00200975
0.00204911
0.00210855
-0.0054596
0.00190324
0.00197057
0.00223606
0.00211636
0.00146983
0.000215502
0.00218713
0.00224932
0.0019209
0.00192148
-0.00402961
0.00184222
0.00206187
0.00222669
0.00177599
0.00221348
0.00213365
0.00221848
0.00213214
0.00224848
0.00221865
0.00210006
0.00196405
0.00224443
0.0022378
0.00209825
0.00195213
-0.000266695
0.00202737
0.00222998
0.00223993
