0.0036903
0.00267232
0.00274158
0.00344677
0.00342419
0.00333262
0.00320024
0.0032151
0.00249782
0.00317143
0.00321566
0.00386433
0.00346749
0.0034725
0.00346712
0.00299349
0.00217657
0.00357195
0.00336643
6.36828e-05
0.00351331
0.00278918
0.00347186
0.00320318
0.00325571
0.00348049
-0.000369785
0.00309102
0.00346883
0.0033782
0.00321998
0.00251806
0.00343837
0.00351103
0.00315618
0.00284749
0.00226258
0.00320561
0.00254194
0.0029396
0.00364122
0.00286162
0.00294478
-0.00516115
0.00359542
0.00338369
0.00344482
0.00339848
0.00345108
0.00332839
0.00161417
0.00344054
0.00356337
0.0009934
0.00276414
0.00295373
-0.000951725
0.00277195
0.00283823
0.0034181
0.00344419
0.00346605
0.00317061
0.00351466
0.00332153
0.00332199
0.00295519
0.00291849
0.00340246
0.00283003
0.00327846
0.00323879
0.00230864
0.00360485
0.00301914
0.00343232
0.00244462
0.00347418
0.00332664
0.00311794
0.00346499
0.00336196
0.00366845
0.00309196
0.00270077
0.00337601
0.00342694
0.00342356
0.00345931
0.00345581
0.00167253
0.00323386
0.0014854
0.00349905
0.00321276
0.00270095
0.00340305
0.00336513
0.00348485
0.00340303
0.00264715
-0.000388213
0.00327989
0.00319537
0.00289678
0.00286793
-0.00113342
0.00311301
0.00321718
-0.00403522
0.00317874
0.00352521
0.00343152
0.00203531
0.00339567
0.00299592
0.00337922
0.00341336
0.00303068
0.00343067
0.00246339
0.00275751
0.00280304
0.00345151
0.00318245
0.00271487
0.00254683
0.0032942
0.00354612
0.0025241
0.00302478
0.00345208
0.00316735
0.00348847
0.00309691
0.00297118
0.003341
0.00278705
0.0035496
0.00381037
0.00324942
0.00305936
0.00271698
0.00117011
0.00309693
0.00374511
0.00358805
0.00240012
0.00299871
0.00284676
0.00345528
0.00333853
0.00318535
0.00343264
0.00350107
0.0035137
0.00285551
0.00314703
0.00345548
0.00350059
0.00227807
0.00343015
0.00294371
0.00201495
-0.00104268
0.00207855
0.00313914
0.00354755
0.00250393
0.00301722
0.00341467
0.00220448
0.00327429
0.00241039
0.00284106
0.00324102
0.00131735
0.00285114
0.0034458
0.00342914
0.00348079
-0.00403076
0.00339992
0.00291223
0.00340669
-0.00216732
0.00351166
0.00340042
0.00346083
0.00122406
0.00302896
0.00342398
0.00298999
0.00377805
0.00182325
0.00337525
0.00318615
0.00230708
-0.000379592
0.00274334
0.00334748
0.00320193
0.0032511
0.00321123
0.00365287
0.00330915
0.00302817
0.00347391
0.00236906
0.00243727
0.00352434
0.00340731
0.00377648
0.00317731
0.00311994
0.00205972
0.00346558
0.00347116
0.00300929
0.00269824
0.00315854
-0.00331478
0.000224274
0.00373754
0.00343687
0.00346638
0.00342297
0.00245162
0.000253386
0.00350297
0.0036039
0.00348442
0.00359284
0.00301801
0.00309992
0.00279797
0.00326478
0.00323634
0.00221352
0.00240736
0.00339791
0.00335255
0.003461
0.00309319
0.0029961
0.00251053
0.00267835
0.00353802
0.00276676
0.00329649
0.00261144
0.00317528
0.00306048
0.0030888
0.00348692
0.00333925
0.00347178
0.00338509
0.00311965
0.00322414
0.00312867
0.00294595
0.00330308
0.00346945
0.0029564
0.00322037
0.00248669
0.00320749
0.00278061
0.0032387
0.00256229
0.00341301
0.00334925
0.00344661
0.00319432
0.00214839
0.00318745
0.00307183
0.00301452
0.00304274
-0.00572302
0.00278207
0.00340709
0.00337617
0.00329701
-0.00578289
0.00317776
0.00231115
0.00324755
0.00346079
0.00156519
0.00154486
0.00334718
0.00267347
0.00319482
0.00338856
0.00342717
0.00215896
0.00333063
0.00209191
0.00326459
0.00343944
0.0030718
-0.000614937
-0.000840907
0.00268209
0.00351054
0.00292427
0.00279705
0.002833
0.00221261
0.0034859
-0.00626159
0.00358437
0.00347612
0.00190193
0.00210007
0.00215482
0.00290979
0.00280079
0.00121206
0.00345154
0.0029434
0.00111637
-0.00477135
0.00322356
0.00342513
0.00185435
0.00229104
-0.00558026
0.00286256
0.00180425
-0.003471
0.00352231
0.00346422
0.00335435
0.00353567
0.0029393
0.00330809
0.00272578
0.00343491
0.00331832
0.00273936
0.00287714
0.00281821
0.00274672
0.00344469
0.00349628
0.0032806
0.00347505
0.00207362
0.00345665
0.00289686
0.00347734
0.00260283
0.00372438
0.00351209
-0.0027949
0.00320522
0.00290337
0.00305865
0.00321595
0.00330011
0.00348479
0.003453
0.00334633
0.0033566
0.00379703
0.00339127
0.00308802
0.00346799
0.00097093
0.00344293
0.0030126
0.00344365
0.00357774
0.00221315
0.00344487
0.00329125
0.00336876
0.00346861
0.00343166
0.00330147
0.00336373
0.00363758
0.00326862
0.00195138
0.00293549
0.00310353
0.00259345
0.0025844
0.00281238
0.00316764
0.00344498
0.00345847
0.00301861
0.00187584
0.00302151
0.00362174
0.00329743
0.00342847
0.00307984
0.00349797
0.00337085
0.00347243
0.00259946
0.00351973
0.00242426
0.00344715
0.00333236
0.00243524
0.00281006
-0.000990268
-0.00470482
0.00239553
0.00114703
0.00302386
0.00266529
0.00242364
0.00283878
0.00346557
0.00348632
0.00302301
0.00320715
0.00378237
0.00223129
0.00226423
0.00259259
0.00322897
0.00270321
0.00345338
0.00323286
0.00306424
0.00331766
0.00340473
0.00344573
0.00337809
0.00298941
0.00275334
-0.00632936
0.00298011
0.00284171
0.00303387
0.00286145
0.00331159
0.00348997
0.00354543
0.00288933
0.0033511
0.00275382
0.00235713
0.00314417
0.00346164
0.00315622
0.00320804
0.0033759
0.00346868
0.00284198
0.00298174
0.00353943
0.00376819
-0.00147735
0.00327501
0.00342373
0.00347239
0.00257191
0.00334697
0.00275833
0.00347104
0.00357992
0.00276588
0.00341938
0.00268118
0.00368193
0.00228063
0.00357847
0.00356218
0.00337517
0.00360223
0.00353556
0.00272879
0.00256532
0.00335736
0.00322152
0.00350109
0.00359818
0.00294374
0.00315663
0.00351991
-0.00063574
0.00338548
0.00310219
0.00230214
0.00311379
0.00291652
0.00341946
0.00277681
0.00341983
0.0034629
0.00377946
0.00198767
0.00289407
0.00292521
0.00243291
-0.00597775
0.00347321
0.00341707
0.00349666
0.00322161
0.00313543
0.00293026
-0.0036225
0.00302625
0.00348848
0.00325799
0.00275242
0.00312401
0.00281591
0.00332614
0.00271213
0.00326467
0.00307305
0.00339874
0.00328997
0.00316516
0.00343039
0.00320561
0.00288756
0.0033786
0.00338674
0.00334861
0.00331525
0.00333853
0.00282682
0.0026431
0.000599425
0.00293905
0.00265997
0.0026164
0.00279656
0.00347485
0.0033051
0.00160403
0.00302109
0.00312241
0.00267826
0.00327089
0.00361274
0.00317311
0.00342822
0.0035552
0.00315442
0.00321764
0.00261312
0.00350966
0.00296801
0.00341339
0.00323363
0.00306339
0.00319864
0.00287289
0.00277474
0.00348372
0.00122343
0.00346879
0.00134706
-0.00464258
0.00328099
0.00344591
-0.00278842
0.0034875
0.00303511
0.003514
0.00273605
0.00331401
0.0032108
0.00338847
0.00373552
0.00280897
0.00251317
0.00349872
0.00314905
0.00342743
0.00321579
0.00261
0.0031686
0.00105334
0.00353638
0.00213988
0.00349052
0.00269757
0.00347885
0.00342655
0.00341379
0.00233474
-0.00477332
0.00322194
0.00343505
0.00313575
0.00174994
0.00204564
0.00305513
0.00296155
0.00348221
0.00341486
0.00346875
0.00342382
0.00347443
0.00243386
0.000979666
0.00318974
0.0034722
0.00324154
0.00338116
-0.000307822
0.00296746
0.00285831
-0.00129606
0.00345349
0.0032935
0.00339761
0.0030591
0.00288826
0.00319286
0.00329782
0.00347085
0.00345746
-0.000834982
0.00343439
0.00239654
0.00346463
0.00286659
0.00344084
0.00231366
0.00289634
0.00348784
0.00322569
0.00282297
0.00346801
-0.00146457
0.00349612
0.00325413
0.00329527
0.00290632
0.00323259
0.00340079
0.00280489
0.0035094
0.00306258
0.00348542
0.00124343
0.00335517
0.00291028
0.00276272
0.0034401
0.00296836
0.00332439
0.00222787
0.00222526
0.00358741
0.00301639
0.00339594
0.00154338
0.00259026
0.0031856
0.00315778
0.00316329
0.00339791
-0.000381261
0.00276302
0.00342854
-0.00111469
0.00338711
0.00311862
0.00365204
0.00310932
0.00332762
0.00323586
0.000863025
0.00316933
0.00334683
0.00306688
0.00242806
0.00197286
-0.00382872
0.0027219
0.00298068
0.00305971
0.00346496
0.00311852
0.00177892
0.00336419
0.00235732
0.00337306
0.00294079
0.00343099
0.00356412
0.00300145
0.0023988
0.00344552
0.00311145
0.00329609
0.00294748
0.00307014
0.0030518
0.00234231
0.00288093
0.00249508
0.00326071
0.00225314
0.00346116
0.00371593
0.00270135
0.00328315
0.00317293
0.00316168
0.00308345
0.00267692
0.00256674
0.00342854
0.00322259
0.00343846
0.00309268
0.00310445
0.00366657
0.00331167
0.00338704
0.00312965
0.00333555
0.00278829
0.00344913
0.00277424
0.00340933
0.00335568
0.00351835
0.00336598
0.00298433
0.00316323
0.000584368
0.00362074
0.00347462
0.00333856
0.00269886
0.0034704
0.0034628
0.00333837
0.00310986
0.00277569
0.00349628
0.00270435
0.00334337
0.00238559
0.0033718
0.00369467
0.00329917
0.00274748
0.00318878
0.00268704
0.00278728
0.00331287
0.00367357
0.00285234
0.00345036
0.0030495
0.00305499
0.00345395
0.00281914
0.00308961
0.00341699
0.00342523
0.0027555
0.00321804
-0.00481004
0.00297915
0.00325324
0.00268352
0.00342496
0.00245114
0.00351789
-0.00172201
0.00335377
0.00259646
0.00315063
0.00291924
0.0034759
0.00342537
0.00293482
0.00361058
0.00316161
-0.000418023
-0.00127399
0.00351369
0.00344786
0.00328912
0.00317367
0.00256023
0.00349843
0.00135529
0.00342508
0.00103885
0.00264414
0.00302336
0.00335624
0.00316154
0.00252318
0.00282257
0.00346805
0.00316318
0.00323121
0.0034952
0.00343397
0.00337565
0.00201999
0.00354657
0.00265153
0.0030163
0.00345104
0.00244738
0.00207045
0.00178652
0.00314443
0.0011059
-0.000636733
0.00325908
0.0032475
0.00312836
0.00230393
0.00307981
0.0034727
0.00339973
0.00349432
0.00304178
0.00350162
0.000114856
0.00247744
0.00352357
0.00323711
0.00370373
0.00358104
-0.000544254
0.00319495
0.0034277
0.0030981
0.00349932
0.00335933
0.00318446
0.00305948
0.00336773
0.00353031
0.00237892
0.00344807
0.00346572
0.00290865
0.0033654
0.00298667
0.00344435
0.00360328
0.00279959
0.00219036
0.00278857
0.0033493
0.00312811
0.00268354
0.00318405
0.00349014
0.00348487
0.00302879
0.00278304
0.00201172
0.00340474
0.002314
0.00349199
0.00330594
0.00320249
0.00375738
0.00322707
0.00325087
0.00282877
0.00297375
0.00347398
0.00237767
0.00321575
0.00328851
0.0029244
0.00240178
0.00296307
0.00307055
0.00243554
0.00352593
0.00329608
0.00315208
0.00293925
0.00319804
0.00255363
0.00340981
0.00285604
0.00309867
0.00284635
0.00280077
0.00334292
0.00351677
0.00326942
0.00311789
0.00341102
-0.00577314
0.0032284
0.00287688
0.000448247
0.00333686
0.00346938
0.00279823
0.00308184
0.00313341
0.00348635
0.00337406
0.00305638
0.00204233
0.00327974
0.0032546
0.00324838
-0.000394992
0.00319074
0.00268502
0.00298502
0.00289439
0.00293894
0.0028146
0.00336121
0.00346642
0.00279794
0.00285906
0.00251219
-0.00442245
0.0034844
0.00331072
0.00284043
0.002483
0.00327493
0.00365699
-0.00645961
0.00326556
0.00281855
0.00246928
0.0031636
0.00294142
0.00301361
0.00357655
0.00299795
0.00267582
0.00323371
0.00346481
0.00285399
0.00334064
0.00357845
0.00246831
0.00354339
0.00354167
0.00228257
0.00356203
0.00354991
0.00379107
0.00292663
0.0031111
0.000734445
0.00309107
0.00342702
0.00344918
0.00281266
-0.000562906
0.0034404
0.0030499
0.000815007
0.00332579
0.00322104
0.00220604
0.00271777
0.00273056
0.00277808
0.00350701
0.00336325
0.0033487
0.00356942
0.00349769
0.00361822
0.00275186
0.00272153
0.0035023
0.00256742
0.00337599
0.0030748
0.00319303
0.00253834
0.00304246
0.000364472
0.00343068
0.00346932
0.00293207
0.00285005
0.00281642
0.00353155
0.00113145
0.00338924
0.00259964
0.00352513
0.00344269
0.00291138
-0.000629752
0.0035076
0.00320405
0.00307173
0.00292086
0.00315098
0.00375288
0.0033954
0.00299745
0.00289469
0.00376858
0.00360983
0.00250734
-0.00609007
0.00302119
0.00344193
0.00343557
0.00348503
0.00318709
0.00283384
0.00312103
0.00299885
0.00351876
0.00323236
0.00345396
0.00326921
0.00322715
0.00347464
0.00347211
0.00294102
0.00298697
0.00220963
0.00342088
0.00325638
0.00311057
0.00292593
0.00280407
0.0031849
0.00349427
0.00329102
0.00333763
0.00256278
0.00306477
0.00238759
0.00256922
0.00107782
0.00334512
0.00280202
0.00346638
0.00299856
0.00270358
0.00258955
0.00256866
0.00306099
0.00321441
0.00339631
0.00324013
0.0029833
0.00333547
0.00256035
0.00380269
0.00338966
0.0034794
0.00360244
0.00351716
0.00292614
0.00205023
0.00307055
0.00346681
0.00341102
0.00310809
-0.00099869
0.0031508
0.00301738
0.00349631
0.00313762
-0.00607049
0.00300475
-0.000885975
0.00280963
0.00335773
0.00356856
0.00347276
0.00315438
0.0033546
0.00281067
0.00276174
0.00324064
0.00349299
0.00259749
0.00333317
0.00320473
0.00348448
0.00312754
0.00338706
0.00330207
0.00220428
0.00339121
0.00358526
0.00346261
0.00341719
0.00311387
0.00319474
0.00351209
0.00283647
0.00288729
0.00316783
0.00310244
0.00346986
0.00383994
0.0023002
0.00286339
0.00278758
0.00340437
0.00342967
0.00269315
0.00277136
0.00344552
0.00323364
0.0034294
0.00329474
0.00257696
0.0034401
0.00268077
0.00348924
0.00301536
0.00284437
0.00321473
0.00346972
0.00222107
0.00319717
0.00272356
0.00347789
0.00346692
0.00295912
0.00347526
0.00337223
-0.00273681
-0.00601014
-0.00403205
0.00314191
0.00349072
0.00292119
0.00316637
0.0032913
0.00262589
0.00305968
0.00297889
0.00346651
0.00331176
-0.00137122
0.00315017
0.00359536
0.00315126
0.00263446
0.00307411
0.0027711
0.00295467
0.00315263
0.00335097
0.00279631
0.00318927
0.00208617
-0.000166594
0.00287384
0.00292451
0.0028994
0.00344268
-0.00448582
0.00345222
0.00338139
0.00323278
0.00310201
0.00302089
0.00264972
0.00270718
0.00347459
0.00368055
0.00295716
0.00223213
0.00338605
0.00342531
0.00268313
0.00349262
0.0028536
0.00310502
0.00330434
0.00301803
0.00295737
0.00268745
0.00346571
0.00356553
0.00286102
0.0034573
0.00292976
0.00339035
0.00280276
0.00335641
0.00211171
0.00266135
0.00310312
0.00260827
0.00346999
0.00238464
0.00341816
0.00337366
0.00339254
0.00298189
0.00302853
0.0034412
0.00205657
0.00339717
0.00307157
0.00276466
0.00204147
0.00248394
0.00335529
0.00315519
0.00347123
0.00324545
0.00323156
0.00230675
0.00344885
0.00317911
0.00322941
0.00345819
-0.00230751
0.00197835
0.00269053
0.0031006
0.00339002
0.00246449
0.00313171
0.00304608
0.00274141
0.00349803
0.00348708
0.00277714
0.00292217
0.0034269
0.00340404
0.00276006
-0.000101361
0.00282317
0.00344114
0.00305363
0.003307
0.0027582
0.00347067
0.00291633
0.00281546
0.00299716
0.00348799
0.00288453
0.003635
0.00285122
0.00345139
0.00329644
0.00334252
0.00334112
0.00282569
0.00312874
0.00345462
0.00344502
0.00348201
0.0032134
0.00330814
0.00223903
0.00339526
0.00308498
0.00375377
0.00213472
0.00358633
0.00311316
0.00326705
0.0030496
0.00262262
0.00314703
0.00324584
0.00355582
0.00342779
0.00252634
0.00104644
0.00344321
0.00347137
0.00314573
0.00292635
0.00257018
0.0034596
0.00310819
0.00234333
0.00337534
0.00299065
0.0035516
0.00289678
0.00334191
-5.53697e-05
0.00347357
0.00308198
0.00307788
0.00347763
0.00355989
0.00289184
0.00341544
0.00350086
0.00316751
0.00293991
0.00351238
0.00322486
0.00270322
0.0032047
0.00278879
0.00320021
0.00214669
0.00327699
0.00318241
0.00334098
0.00319032
0.00355549
0.00239513
0.00344329
0.00239341
0.00291108
0.0013396
0.00232877
0.0031421
0.00281347
0.00316878
0.0028178
0.0028736
0.00345999
0.00313336
0.00236617
0.00306803
0.00268081
0.00297374
0.00327334
0.00341534
0.00301672
0.00289735
0.00347144
0.0029746
0.00354917
0.00342371
0.00378181
0.00327063
0.00343762
0.00210003
0.00340738
0.00354165
0.00307333
0.00236656
0.00282822
0.00344848
0.00333014
0.0032311
0.00208686
0.00338015
0.0034413
0.003074
0.00233704
0.00295953
0.00341605
0.0029607
0.00300275
0.000289027
-0.00399011
4.25422e-05
0.00276699
0.0027117
0.0029024
0.00186916
0.00329862
0.00242892
0.00286216
0.00286727
0.00329415
0.00343884
0.00318356
0.00316764
0.00306049
0.00265587
0.00381989
0.00310105
0.0025955
0.00303967
0.00348386
0.00277114
0.00260892
0.0027935
0.00340103
0.00320516
0.00343612
0.00348715
0.00341898
0.00321443
0.00347588
-0.00426584
0.00298502
0.00323048
0.00311094
0.00294841
0.00309423
0.00352757
0.0020207
0.0034709
0.00331553
0.00347667
0.00253429
0.00232013
0.0032291
0.00332232
0.0014231
0.00313949
0.00358408
0.00278858
0.00305753
0.00347814
0.00331451
0.0034454
0.00287281
0.00306293
0.00202475
0.00266043
-0.000235066
0.0027069
0.00347682
0.00355888
0.00282784
0.00324464
0.0034477
3.9722e-05
0.0033739
0.00340849
0.00314456
0.00334239
0.00341509
0.00179387
0.00350323
0.00335391
0.00371006
0.00285638
0.00291168
0.00224052
0.00332611
0.00321913
0.00343525
0.00348198
0.00314592
0.00308645
0.00340755
0.00349495
0.00346892
0.0025767
0.00347074
0.00326862
0.00348459
0.00355267
0.00346972
0.00296601
0.0028872
0.00269273
0.0031911
0.0029444
0.00303379
0.00337509
0.00221467
-0.0022081
0.00334183
0.00293886
-0.00268079
0.00335531
0.000456285
0.00321341
0.00368078
0.00303074
0.00284224
0.00347924
0.00332313
0.00306047
0.00322303
0.00269477
0.00355292
0.00296238
0.00331524
0.00351026
0.00305907
0.00322003
0.0033179
0.00238122
0.00283014
0.00242427
0.00347982
0.00317163
0.00323471
0.00285948
0.00318277
0.00293977
0.00126156
0.00263542
0.00348214
0.00124853
0.00347224
0.00254483
0.00299736
0.00300207
0.00361362
0.00356217
0.00335857
0.00192972
0.00272195
0.00338393
0.00355372
0.00339585
0.00227111
0.00302529
0.00282094
0.00317925
0.00275556
0.00299217
0.00311196
0.00298569
0.00213853
0.00255502
0.00332457
0.00317546
0.00331832
0.00294019
0.00341803
0.00379286
0.00231885
-0.00128516
0.00342662
0.00328205
0.00224631
0.00270557
0.00252405
0.0024973
0.00296811
0.00329566
0.00283622
0.00326266
0.00329731
0.00335891
0.00330063
0.00356045
-0.00154921
0.00166394
0.00113962
0.000639034
0.00308241
0.0015685
0.00309534
0.00324648
0.00308365
0.00303053
0.00336317
0.00313304
0.00217035
0.00340699
0.00316032
0.00243562
0.00300289
0.00313278
0.001884
0.00344979
0.00325448
0.00306808
0.00311057
0.00335497
0.00343173
0.00349842
0.00321016
0.0031274
0.00322816
0.0034064
0.00286989
0.00271656
0.00284493
0.00340577
0.00281956
0.0032819
0.00337584
0.00346815
0.00377006
0.00321883
0.00316957
0.00284989
0.00334783
0.00350982
0.00275697
0.00222348
0.00318328
0.00329858
0.0035128
0.00317817
0.00352168
-0.00314887
0.00203036
0.00252215
0.00124031
0.00342537
0.00331305
0.00312167
0.00334806
0.00330136
0.00311346
0.00279391
0.00345317
0.003275
0.0033178
-0.000118479
0.00230085
0.00309168
0.00314268
0.0028815
0.00311784
0.00318617
0.00289446
0.00144269
0.00315899
0.00263974
0.00339166
0.00168617
0.0027488
0.00282691
-0.00140261
0.00322835
0.00339671
0.00323398
0.00306455
0.00103315
0.00321763
0.00269394
0.0035692
0.00334801
0.00339074
0.00333221
-0.00111221
0.00219023
0.00292213
0.0024633
0.00298346
0.00305761
0.0033014
0.00348182
0.00219548
0.00339556
0.00248737
0.00347458
0.00349271
0.00352098
0.00365774
0.00284207
0.00250942
0.00296503
0.00337525
0.00215034
0.0026547
0.00259838
0.00358882
0.00343643
0.00257356
0.0029169
0.00376631
0.0035236
0.00277734
0.00346354
0.00272634
0.00282376
0.00355937
0.00349504
0.00302793
0.00209324
0.00347138
0.00353428
0.00341147
0.0034532
0.00330708
0.00362156
0.00205795
0.00284592
0.00251767
0.00294341
-0.000987636
0.00322127
0.00269054
0.0035214
0.00160822
0.00347187
0.00305658
0.00346766
0.00364076
0.00346466
0.0034676
0.00330573
0.00196639
0.00346996
0.00322832
0.00141509
0.00265821
0.00331522
0.00345945
0.00369777
0.00355062
0.00317605
0.0029053
0.0027795
0.00359627
0.00346667
0.00321561
0.00280257
0.00311231
0.00343842
0.00280248
0.00212498
0.0028663
0.00320896
0.00337319
0.00111349
0.00356244
0.000636399
0.00345648
0.00270142
0.00301864
0.00299215
-0.00163501
-0.00249604
0.00342743
0.00336789
0.00301263
0.00346795
0.0032432
0.00348068
0.00269734
0.00329948
0.00378642
0.0035434
0.00349621
0.00347855
0.00361584
0.00345083
0.00314088
0.00177156
0.00346703
0.00240965
0.00344765
0.00328444
0.0034185
0.00189161
0.00262238
0.00346419
-0.00445827
0.00264438
0.00281556
0.00322185
0.00326861
0.00317706
0.00246431
0.00347002
0.0031167
0.00345638
0.00336372
0.00317312
-0.00485733
0.00322377
0.00173848
0.0029804
0.00303126
0.00346022
0.0031845
0.00110865
0.0029948
0.00332198
0.00343989
0.00289998
0.00206134
0.00257662
0.00352666
0.00352512
0.00321706
0.00307696
0.00349468
0.00331251
0.0034803
0.00332628
0.00332384
0.00152326
0.00348172
0.00342056
0.00331637
0.00322063
0.00322225
0.00342807
0.00291862
0.00321831
0.00338398
0.00249291
0.00316693
0.00308851
0.00321549
-0.00419224
0.00342741
0.00335529
0.00335498
0.00306728
-0.00302635
0.00303016
0.00346908
0.00328891
0.00349023
0.0027152
0.00340636
0.00248604
0.00348984
0.00342659
0.00327258
0.00332808
0.00347272
0.00350146
0.00346017
0.00333405
0.00284863
0.00309452
0.00325257
0.00330051
0.00379271
0.00343809
0.00338755
0.00350455
0.00166174
0.00345365
0.00310158
0.00308996
0.00315867
0.0025338
0.00356141
0.00338394
0.00344173
-0.001567
0.0031124
0.00346888
0.00289469
0.00325736
0.00344601
0.00315441
0.0033204
0.00301592
0.00307615
0.00312244
0.00318458
0.00227301
0.00350131
-0.00310873
0.00356268
0.00347536
-0.00139554
0.00334189
0.00302541
0.00332781
0.00196653
0.00348753
0.00260315
0.00341733
0.00341016
0.00330406
0.00302274
0.00279001
0.00323335
-0.00147219
0.00347015
0.00320888
0.00294524
0.00320014
0.00332758
0.00328476
-0.00232949
-0.00110523
0.0034578
0.00346816
0.00329684
0.0014864
0.00342414
0.00344342
0.0029842
0.00286353
0.00268747
0.00345494
0.00306025
0.00352091
0.00303683
0.00275465
0.00310481
0.00257952
0.00198894
0.00354964
0.00330695
0.00330598
0.00347782
0.00335978
0.00352142
0.0030246
0.00336764
0.00349889
0.00312237
0.00346256
0.00356687
0.00317194
0.0028331
0.00346738
0.00258636
0.00238421
0.0033957
0.00345098
0.00296466
0.00339222
0.00309119
0.00344085
0.00337802
0.0033616
0.00332126
0.00301784
0.00300837
0.00348158
0.00297044
0.00351156
0.00340633
0.00344067
0.00257449
0.0033825
0.00307686
0.00249166
0.00333384
0.00304708
0.00250555
0.00340966
0.00170091
0.00335566
0.00190412
0.00324937
0.00337368
0.00325146
0.00245855
0.0034866
0.00357748
-0.00512606
0.00216152
0.000681147
0.00346873
0.00335652
0.00311099
0.00344139
0.00338668
0.00334169
0.00308464
0.00208064
0.00137444
0.00337652
0.00339166
0.00356147
0.00351331
0.00345771
0.0034671
0.00248712
0.00317068
0.00273281
0.00343446
0.00347448
-0.00134553
-0.00428648
-0.00278832
0.00321945
0.00352475
0.0031436
0.00118044
0.00383918
0.00343278
0.00357137
0.00139882
0.00347807
0.00261679
0.00328565
0.00118101
0.00350098
-0.000983658
0.00363147
0.00345418
0.00354003
0.00306701
0.00340512
0.00258415
0.00343807
0.00320373
0.00344416
0.00275581
0.00320908
0.00159134
0.00328459
0.00342995
0.00263056
0.00347242
0.00287752
0.00352276
0.00330704
0.00303194
0.00283071
0.00300548
0.00285904
0.00263639
0.00344516
0.00316319
0.00346862
0.00319057
0.00354311
0.00330304
0.00287495
0.00244666
0.00346381
0.00343571
0.00329244
-0.0022019
0.00327114
0.00308357
0.00346587
0.00313545
0.00310163
0.00290028
0.00215008
0.00341966
0.00304464
0.00344054
0.0026666
0.00285503
0.00317548
0.00300322
0.00362481
0.00328939
0.00279909
0.00341598
0.00307705
0.00271625
0.00343357
0.000342727
0.00326621
0.00309373
0.00249331
0.00334933
0.00308816
0.00336546
0.00250108
0.00350754
0.00229718
0.00366463
-0.00581511
0.00343504
0.00341294
0.00314803
0.0035462
0.00345129
0.00190888
0.00125115
0.00336604
0.00302567
0.00333633
-0.00610306
0.00358969
0.0032349
-0.00589729
0.000819557
0.00308188
0.000989354
0.00317975
0.00357321
0.00317739
0.00222105
0.00284568
0.00287641
0.00322045
0.0023375
0.0036464
0.0030026
0.00258304
-0.000669021
0.00217905
0.00346801
0.00278339
0.00296556
0.00257731
0.00348318
0.00350172
0.00267289
0.00345294
0.00302496
0.00217446
0.00346174
0.00308394
0.00338693
0.00343329
0.00233239
0.00345679
0.00292023
0.00336107
0.00300671
0.0024691
0.00347334
0.00297817
0.00323389
0.00337385
0.003133
0.00320399
0.00272975
0.00346754
-0.00505813
0.00324247
0.00330643
0.001756
0.00286805
0.00340964
-0.00417029
0.00328341
0.00347695
0.0032752
0.00332476
-0.00380069
0.00334544
-0.00217144
0.00249627
0.00262458
0.00289707
0.00351927
0.00304022
0.00234642
0.00286471
0.003427
0.00346257
0.00271923
0.00319591
0.00291199
0.00284392
0.00271626
0.00340381
0.00341633
0.00340808
0.000500841
0.00347987
0.00341591
0.00347436
0.000947109
0.00327819
0.00289718
0.00322832
0.00298839
0.00312416
0.00343886
0.00344322
0.00306847
0.00351276
0.00341524
0.00286562
0.00343067
0.00349257
0.00199945
0.00340402
0.00325942
-0.00200851
-2.1515e-05
0.00345278
0.00296271
0.00345443
0.00348626
0.001922
0.00349408
0.00284451
0.00342439
0.00318411
0.00341303
0.00333771
0.00291037
0.00342688
0.00326406
0.00309596
0.00306164
0.00347128
0.00307993
0.00285869
0.00348287
0.00347511
0.00316823
0.00347381
0.00315944
-0.00510462
0.0010287
0.00319562
0.00349554
0.00333987
0.00315167
0.00245548
0.00324564
0.00337546
0.00268802
0.00257454
0.0030496
0.00352519
0.00301066
0.00338629
0.00347693
0.00332635
0.00305977
-0.00141591
0.00345614
0.000406657
0.00347265
0.00328971
0.00348806
0.00343349
0.00345443
0.00338428
0.0032892
0.00348441
0.0032713
0.00346567
0.002649
0.00285692
0.00345007
0.00346825
0.00295007
0.00345051
0.00347292
0.00327734
-0.00668686
0.00212809
0.0033459
0.00322686
-0.00360838
0.00300107
0.00368261
0.00190852
0.00373301
0.00318714
0.00325109
0.00272598
0.00268855
0.00363332
0.00321338
0.00298931
0.00239486
0.00277359
0.00250886
0.00308976
-0.003404
0.00345709
0.00324971
0.0035036
0.00346986
0.00269777
0.00303768
0.00174062
0.0034295
0.0033804
0.00346764
0.00234623
0.00330155
0.0031606
0.0034455
0.00311815
0.00349634
0.00333482
-0.0051966
0.00366879
0.00284709
0.00357753
0.00312122
0.00312822
0.00315408
-0.00155002
0.00324329
0.0033555
0.00314775
0.00208441
0.00304504
0.00297363
0.00346772
0.0034812
0.00358416
0.00309493
0.00337401
0.00230585
0.00277634
0.00282698
0.0033943
0.00343112
0.00338397
0.00344151
0.00339604
0.00348364
0.00133195
0.00286957
0.00281864
0.00327785
0.00347544
0.00310881
0.0034245
0.00341392
0.00334369
0.00199846
-0.00239167
0.00191273
0.00293236
0.00166961
0.00300133
0.00325898
0.00341647
0.00353277
0.00240336
0.00306476
6.19766e-05
0.00332945
0.00342014
-0.000389179
0.0035516
0.00297498
0.00355086
0.00299398
0.00348687
0.00269902
0.00350604
0.00351884
0.00327485
0.002846
0.000737025
0.00310501
0.00203566
0.00317137
0.00309518
0.00335691
0.00306794
0.00305423
0.00307962
0.00340094
0.00262605
0.00348836
0.00196897
0.00251896
0.00254708
0.00334352
-0.00052737
0.00212214
0.00340323
0.00349994
0.00322949
0.00283323
0.00222735
0.00350956
0.00350828
0.00345457
0.00286029
0.00292703
0.00345175
0.0034988
0.00324375
0.00301081
0.00335025
0.00345126
0.00326602
0.00301922
0.00364381
0.00353867
0.00316466
0.00286973
0.00320041
0.00345761
0.0036217
0.00337217
0.00192292
0.00347908
0.00266839
0.00351908
0.0034886
0.00307741
0.0011139
0.00287157
0.00341132
0.0033069
0.00342968
0.00119283
0.00338648
0.00337098
0.00336977
0.00210566
0.00281631
0.00315869
0.00301621
0.0026922
0.0026665
0.00346321
0.00305974
0.00348586
0.00345299
0.00251863
0.0034809
0.00309539
0.00343849
0.00309704
0.0028499
0.00356718
0.00193425
0.00200868
0.00336621
0.00278635
0.00226229
0.00321944
0.00344421
0.00273096
0.00316539
0.00183553
0.00288118
0.00327711
0.0023236
0.00368974
0.00235733
0.00334735
0.00152498
0.00305083
0.0014535
0.00289902
0.0033132
0.00332837
0.00299867
0.00347206
0.00249416
0.00338249
0.0035453
0.00144456
0.00217045
0.00310644
0.00274141
0.00352021
0.00286095
0.00288351
0.00304287
0.00295522
0.00343186
0.00328826
0.00300548
0.00296637
0.0032944
0.0030472
0.00265304
0.00261161
0.00332256
0.00351876
0.0023587
0.00298824
0.00340384
0.00343956
0.00334553
0.00348502
0.00330404
0.00261902
0.00266498
0.00302051
0.00250189
-0.00518015
0.00344622
0.00241053
-0.00257334
0.00352209
0.00250359
0.002918
0.00379471
0.00316609
0.00348589
0.00352511
0.00291573
0.00154168
0.00346513
0.00328945
0.00333093
0.00353624
0.00266893
0.00295754
0.00344497
0.00350092
0.0033765
0.00362071
0.00282629
0.00346519
0.00330098
0.00254942
-0.000111742
0.00347352
0.00376329
0.00342738
0.00323612
0.00280469
0.00334885
0.00268246
0.00357526
0.00344476
0.00332687
0.00221296
0.0022361
-0.000276333
0.0034722
0.00347351
0.00345674
0.00291956
0.00284501
0.00339311
0.00334553
0.00317104
0.00342491
0.00286628
0.0026744
0.00343087
0.00297706
-0.00481282
0.00339637
0.0034185
0.00346794
0.00326254
0.00268174
0.0026859
0.00264644
0.00294827
0.00278523
0.00231838
0.00310385
0.00224592
0.00309958
0.00288887
0.00339188
0.0033304
0.0030529
0.00348255
-0.000716527
0.00289888
0.00342379
0.00297508
0.00316896
0.00310836
0.00021053
0.00251854
0.00343383
0.00361777
0.00255173
0.00344992
-0.000698986
0.00298322
0.00330516
0.00340885
-0.000916945
0.00332338
0.00348943
0.00326523
0.00283213
0.00302456
0.00276733
0.00267174
0.00346582
0.00342622
0.0034749
0.00374044
-0.000901505
0.00285832
0.00241552
0.00356601
0.0028817
0.00333756
0.00315809
0.00280412
0.00351525
0.0034103
0.00360156
0.00346687
0.00308589
0.00193198
0.00358486
0.00347612
0.00350657
0.00341429
0.00258228
0.00285639
0.0018636
0.00368123
0.00349458
0.00288805
0.00347385
0.00254896
0.00327782
0.00330813
0.00341678
0.00339988
0.00332774
-0.00481445
0.00358244
0.0028517
0.00348043
-0.00295505
0.00141717
0.00275655
0.00380007
0.00297296
0.00341652
0.00359206
0.00282347
0.00337456
0.00345916
0.00215405
0.00299104
0.00344515
0.0034189
0.00330937
0.0028502
0.00359713
0.00255147
0.00353374
-0.0063375
0.00233253
0.00347978
0.00322838
0.00347115
0.00169757
0.00337924
0.00247941
0.00339595
0.0029294
0.00329091
0.0027016
0.002983
0.00321893
0.00316202
0.00295796
0.00351993
0.00246466
0.00309862
0.00338444
0.00353036
0.00346026
0.00272775
0.00277246
0.00309043
0.00376584
0.00309823
0.0034949
0.00191235
-0.00139812
0.00287093
0.00215926
0.00148137
0.00208285
0.00190306
0.00315894
0.00324547
-0.00469085
0.00333484
0.00358341
0.00290193
0.00349981
0.00263495
0.00295995
0.00293273
0.00265809
0.0034421
0.00330685
0.00260255
0.00345236
-0.00394116
0.00346096
0.00259491
0.0024499
0.00346955
0.00332286
0.00297655
0.00270552
0.00347036
0.0034054
0.0031571
0.00346882
0.00293354
0.00347188
0.00271476
0.00189774
0.00265309
0.00311884
0.00308563
0.00347189
0.00347114
0.00331237
0.00336449
0.00339392
0.0033898
0.00286357
0.00345606
0.0025495
0.00301159
0.00363501
0.00313615
0.00294166
0.00313016
0.00325841
0.000926877
0.00339127
0.00301819
0.00212145
-0.00158742
0.00274549
0.00303671
0.00362245
0.00212883
0.00325664
0.00259891
0.00318692
0.00359835
0.00312662
0.00313222
0.00344492
0.00264035
0.00311154
0.00330886
0.00321494
0.00345993
0.00314925
0.00298457
0.00342807
0.00377773
0.00351944
0.00347279
0.00338371
0.00361624
0.00352065
0.00339601
0.00308617
0.00346983
0.00330068
0.0035037
0.00272195
0.00351312
0.00278531
0.00262087
0.0034126
0.00299961
0.00340398
0.00338088
0.00300225
0.00214446
0.00340488
0.00350162
0.00343388
0.00352611
0.00250707
0.00343432
0.00289822
0.00340672
0.00345931
0.00338719
0.00326596
0.00334252
0.00330552
0.00283654
0.00327922
0.00283156
0.00349351
0.00165535
0.00240103
0.000637709
0.00324589
0.00354013
0.00355002
0.00338318
0.00322508
0.00344003
0.00248805
0.00351519
0.00279653
0.00278441
0.00349654
0.00346879
0.00352483
0.00306401
0.00315235
0.002832
0.0032855
0.00349591
0.00334709
0.00187721
0.00354512
0.00353008
0.00231121
0.00351325
0.00286071
0.00324083
0.00246876
0.00350694
0.00345415
0.00338122
0.00349305
0.00321368
0.00288256
0.00347334
0.00321389
0.00219358
0.00342624
0.00348043
0.00338807
0.00350266
0.0030012
0.00274841
-0.00131257
0.00297064
0.00310988
0.00296086
0.00261782
0.00238346
0.00052012
0.00296657
0.00315158
0.00327796
0.00337916
0.0035171
0.00323846
0.00290851
0.0021256
-0.00171747
0.00344651
0.0034696
0.00284818
0.00284361
0.00344742
0.00220001
0.00329012
0.00281613
0.00316624
0.00290702
0.0031034
0.00302594
0.00314698
0.00335899
0.00317828
0.00341134
0.00322416
0.0035783
0.0033835
0.00234981
0.00261764
0.00347574
0.00307191
0.00257108
0.00220677
0.00306764
0.00213182
0.0030173
0.00152353
0.00342906
0.00350583
0.0031191
0.00345745
0.00348683
0.00342385
0.00343381
0.0036829
0.00348236
0.00313019
0.00244984
0.00252209
0.00288573
0.00288656
0.0021026
0.00322517
0.00279984
-0.00264159
0.00350027
